lead1,lead2,lead3
4175956,4197671,4201048
4172362,4198700,4205627
4170598,4198687,4207412
4170502,4198301,4207178
4177862,4195476,4196884
4177601,4193629,4195337
4173356,4196687,4202775
4170528,4198970,4207873
4170379,4198894,4207918
4176995,4197840,4200250
4175963,4197867,4201268
4172333,4198905,4205972
4170588,4198980,4207848
4170583,4198651,4207534
4177118,4197737,4200050
4176152,4197729,4200964
4172562,4198765,4205577
4171411,4198133,4206171
4173273,4195512,4201757
4176828,4197887,4200502
4175853,4197822,4201359
4172277,4198776,4205942
4170451,4198885,4207938
4170348,4198556,4207698
4176902,4197551,4200201
4175975,4197584,4201126
4172472,4198589,4205592
4170682,4198583,4207411
4175215,4196476,4200758
4178453,4193392,4194426
4176699,4195102,4197947
4172578,4197670,4204578
4170486,4198364,4207355
4174201,4198578,4204002
4176880,4197339,4200000
4175948,4197235,4200742
4172527,4197745,4204665
4170644,4198093,4206955
4174319,4198626,4203970
4176988,4197367,4199958
4176150,4197167,4200529
4173381,4196897,4203034
4173265,4194979,4201262
4174008,4198848,4204440
4176674,4197554,4200432
4175733,4197356,4201070
4172271,4197878,4205022
4170402,4198260,4207350
4174078,4198675,4204158
4176815,4197396,4200090
4175874,4197182,4200733
4172467,4197654,4204613
4170556,4198031,4207000
4175697,4194688,4198496
4177481,4195183,4197198
4175760,4197164,4200803
4172299,4197903,4205022
4171175,4199883,4208252
4174227,4198757,4204080
4176920,4197405,4199987
4176138,4196713,4200003
4172640,4197362,4204216
4171330,4199784,4208027
4174317,4198616,4203873
4177035,4197180,4199696
4176896,4195712,4198324
4175190,4194109,4198415
4171073,4199994,4208469
4174080,4198789,4204284
4176731,4197329,4200134
4175982,4196539,4200033
4172523,4197238,4204238
4171254,4199767,4208107
4174248,4198644,4204012
4177091,4197264,4199746
4176395,4196537,4199637
4172823,4197168,4203870
4173061,4196274,4202755
4175287,4196654,4200967
4177134,4197153,4199568
4176279,4196647,4199778
4172611,4197385,4204176
4171474,4199934,4208052
4174423,4198768,4203936
4177211,4197377,4199718
4176542,4196592,4199580
4170484,4200011,4209103
4171546,4199776,4207787
4174457,4198400,4203537
4177763,4195719,4197505
4178460,4192780,4193769
4170279,4200391,4209666
4171509,4200172,4208245
4174559,4198845,4203921
4177448,4196867,4199026
4176653,4196364,4199257
4170336,4200102,4209369
4171392,4199816,4208021
4174315,4198500,4203762
4177166,4196535,4198912
4176446,4195970,4199014
4172025,4196577,4204120
4171995,4198130,4205716
4174141,4198362,4203829
4177046,4196540,4199052
4176356,4196144,4199246
4170246,4200059,4209383
4171394,4199780,4207999
4174350,4198440,4203708
4177169,4196523,4198905
4169971,4199844,4209414
4170503,4199870,4208824
4171695,4199482,4207244
4175304,4196876,4201043
4179360,4192553,4192608
4169677,4200148,4210004
4170127,4200135,4209561
4171365,4199670,4207895
4174537,4197803,4202784
4177371,4196155,4198209
4169670,4199962,4209832
4170202,4199991,4209333
4171479,4199670,4207703
4174742,4197812,4202574
4177656,4196010,4197827
4171726,4196668,4204453
4170790,4198458,4207152
4170774,4199867,4208613
4174367,4198233,4203389
4177713,4196452,4198218
4169765,4200233,4210010
4170207,4200287,4209616
4171465,4199896,4207953
4174797,4197944,4202708
4177683,4196309,4198122
4169933,4200225,4209786
4170406,4200208,4209326
4172157,4198991,4206380
4176756,4194498,4197277
4170007,4200101,4209583
4169833,4200229,4209930
4170324,4200134,4209338
4171735,4199205,4207001
4174936,4197559,4202158
4170059,4199945,4209323
4169722,4200074,4209778
4170165,4199912,4209225
4171588,4198943,4206888
4174833,4197280,4202009
4171803,4196174,4203832
4170477,4197944,4206927
4169937,4199589,4209131
4171339,4198894,4207036
4174519,4197212,4202184
4169558,4199635,4209550
4169522,4199901,4209838
4170071,4199836,4209218
4171558,4198931,4206848
4174829,4197360,4202080
4170250,4199872,4209118
4170042,4200042,4209512
4171014,4199165,4207666
4173859,4195840,4201450
4176806,4193886,4196596
4169915,4200110,4209689
4169578,4200285,4210190
4169971,4200072,4209588
4171374,4199067,4207201
4172384,4198957,4205990
4170132,4199920,4209302
4170018,4199872,4209410
4170558,4199127,4208081
4171648,4198460,4206345
4174444,4195357,4200396
4170889,4198118,4206732
4169532,4200046,4210039
4170183,4199641,4208930
4171518,4198899,4206888
4172531,4199104,4206001
4170328,4199985,4209160
4170169,4199977,4209340
4170654,4199331,4208211
4171700,4198664,4206474
4172665,4198730,4205589
4170401,4199696,4208847
4170731,4199064,4207917
4173022,4196040,4202580
4174151,4195079,4200523
4172430,4198744,4205880
4170115,4199678,4209172
4169843,4199719,4209486
4170406,4199128,4208288
4171567,4198398,4206364
4172520,4198706,4205692
4170161,4199620,4208995
4169915,4199653,4209285
4170518,4199025,4208084
4177864,4193299,4195011
4173403,4196320,4202515
4170197,4199337,4208714
4170057,4199176,4208659
4170621,4198752,4207689
4176427,4197595,4200634
4172726,4198712,4205482
4170422,4199528,4208677
4170264,4199083,4208387
4170644,4198697,4207611
4176520,4197512,4200453
4172806,4198704,4205372
4170943,4198962,4207605
4172684,4196206,4203092
4173249,4195502,4201776
4176371,4197669,4200780
4172610,4198915,4205754
4170289,4199702,4208907
4170221,4199208,4208513
4170655,4198726,4207551
4176402,4197572,4200653
4172756,4198721,4205433
4170386,4199501,4208607
4170246,4199018,4208244
4178542,4193582,4194501
4176981,4195386,4197923
4172653,4198470,4205320
4170350,4198968,4208177
4170173,4198683,4208097
4177043,4197791,4200286
4176601,4197626,4200543
4173024,4198685,4205173
4170775,4199025,4207762
4170529,4198742,4207717
4177241,4197655,4199866
4176660,4197516,4200221
4173533,4197876,4203706
4173148,4195846,4202110
4172890,4195564,4202115
4176992,4197793,4200358
4176387,4197698,4200779
4172645,4198734,4205517
4170507,4198981,4207949
4170373,4198759,4207893
4177063,4197608,4200051
4176591,4197368,4200260
4172998,4198327,4204802
4170733,4198589,4207350
4170456,4198338,4207405
4177954,4195195,4196908
4176319,4197133,4200349
4172516,4198381,4205396
4170295,4198651,4207929
4173924,4198711,4204394
4177043,4197383,4199894
4176636,4197027,4199866
4173151,4197515,4203865
4170690,4198114,4207010
4174241,4198709,4204040
4177180,4197387,4199703
4177136,4196316,4198664
4175418,4194322,4198417
4173084,4194860,4201360
4173778,4198913,4204725
4176926,4197522,4200154
4176365,4197187,4200313
4172835,4197668,4204291
4170465,4198214,4207216
4173870,4198751,4204424
4176917,4197432,4199994
4176507,4197058,4199963
4173047,4197446,4203803
4170698,4197975,4206797
4174588,4196620,4201541
4176656,4197136,4199983
4176035,4197110,4200564
4172637,4197573,4204442
4170439,4198050,4207151
4173452,4198730,4204866
4176810,4197363,4200076
4176448,4196957,4199955
4173065,4197462,4203848
4171102,4199748,4208251
4173991,4198673,4204313
4177332,4196440,4198681
4178562,4192997,4193977
4175231,4193591,4197925
4170486,4199884,4208952
4173640,4198740,4204687
4176736,4197170,4199986
4176393,4196265,4199388
4172809,4197080,4203756
4170794,4199678,4208457
4173730,4198595,4204470
4176664,4197078,4199994
4176417,4196163,4199262
4173004,4196914,4203393
4172013,4197713,4205316
4173779,4198591,4204487
4176676,4197398,4200362
4176420,4196547,4199677
4172949,4197104,4203681
4170928,4199790,4208483
4173904,4198725,4204501
4176995,4197190,4199826
4176791,4196305,4199066
4173249,4197052,4203342
4171086,4199769,4208277
4174275,4198039,4203378
4178314,4194028,4195286
4178247,4192833,4194179
4169642,4200240,4210209
4170809,4200052,4208880
4173834,4198720,4204551
4176930,4196650,4199290
4176524,4196018,4198962
4169929,4200037,4209656
4170983,4199927,4208504
4173902,4198681,4204382
4177085,4196559,4199080
4176715,4195836,4198665
4170848,4198002,4206757
4170889,4199768,4208547
4173803,4198847,4204718
4176911,4196845,4199529
4176544,4196068,4199058
4169867,4200098,4209866
4171054,4199971,4208523
4174085,4198700,4204226
4177361,4196612,4198800
4176996,4196031,4198531
4170395,4200130,4209294
4171732,4199313,4207123
4175646,4195644,4199558
4178819,4193317,4194115
4169854,4200304,4210056
4170269,4200331,4209677
4171356,4199982,4208254
4174379,4198232,4203468
4177325,4196364,4198577
4169497,4199786,4209919
4169858,4199945,4209723
4171118,4199659,4208219
4174427,4197878,4203163
4177603,4196100,4198128
4170846,4197986,4206725
4170301,4199876,4209181
4171188,4199877,4208335
4174208,4198155,4203612
4177421,4196317,4198485
4169898,4199949,4209538
4170349,4199974,4209113
4171397,4199623,4207756
4174360,4197901,4203106
4177370,4196248,4198381
4170279,4200077,4209364
4170885,4199623,4208306
4172933,4197148,4203754
4176126,4194908,4198338
4177959,4195648,4197226
4170195,4200279,4209594
4170574,4200280,4209224
4171468,4200076,4208098
4174338,4198381,4203579
4170305,4199800,4208963
4169908,4199994,4209530
4170244,4199923,4209119
4171426,4199120,4207185
4174283,4197650,4202836
4170989,4197932,4206446
4169948,4199811,4209375
4170303,4199896,4209124
4171366,4199149,4207269
4174178,4197616,4202910
4170354,4199743,4208826
4169953,4199942,4209419
4170327,4199802,4208908
4171478,4198981,4207018
4174344,4197610,4202799
4170141,4199955,4209260
4170361,4199553,4208650
4172052,4197240,4204675
4173300,4196340,4202544
4174813,4197194,4201892
4169766,4199929,4209674
4169376,4200148,4210259
4169850,4200013,4209604
4171068,4199155,4207520
4174097,4197545,4202933
4169877,4199613,4209234
4169557,4199933,4209898
4169890,4199942,4209560
4171178,4199129,4207481
4173793,4196583,4202426
4170219,4199734,4209162
4169773,4200063,4209881
4170295,4199439,4208678
4171265,4198854,4207126
4172408,4198911,4205934
4169874,4199839,4209485
4169663,4199908,4209805
4170271,4199291,4208569
4171287,4198675,4206918
4172872,4198790,4205424
4170925,4199112,4207773
4172036,4196950,4204501
4172710,4196144,4203034
4171989,4197943,4205558
4172817,4198978,4205709
4170355,4199946,4209238
4170110,4199992,4209552
4170654,4199364,4208307
4171469,4198759,4206893
4172897,4198824,4205455
4170438,4199759,4208886
4170102,4199765,4209279
4170575,4199159,4208210
4171612,4198435,4206404
4172823,4198859,4205538
4170334,4200180,4209426
4170110,4200256,4209714
4170611,4199631,4208587
4176456,4197859,4200944
4172991,4198891,4205438
4170602,4199758,4208744
4170493,4199342,4208444
4170830,4198857,4207629
4176643,4197554,4200437
4173688,4197858,4203644
4172516,4196380,4203403
4172449,4195780,4202928
4171177,4197786,4206223
4176743,4197546,4200301
4173293,4198544,4204732
4170847,4199337,4208026
4170697,4198862,4207730
4171112,4198489,4206990
4176873,4197460,4200149
4173328,4198514,4204688
4170877,4199265,4207943
4170684,4198693,4207609
4171035,4198119,4206731
4176576,4197279,4200227
4172943,4198596,4205117
4170508,4199410,4208428
4170366,4198945,4208125
4176756,4197693,4200455
4176637,4197452,4200277
4173246,4198379,4204584
4170928,4198643,4207210
4170577,4198390,4207361
4176648,4197610,4200512
4176942,4196645,4199199
4174823,4195277,4199948
4172753,4195532,4202329
4170935,4197798,4206419
4176610,4197924,4200923
4176512,4197553,4200564
4173181,4198356,4204693
4170846,4198653,4207394
4170502,4198448,4207507
4176689,4197702,4200575
4176659,4197359,4200236
4173249,4198243,4204536
4170937,4198569,4207232
4170798,4198265,4207085
4176799,4197689,4200590
4176616,4197653,4200655
4173174,4198550,4204923
4170745,4198919,4207782
4170376,4198675,4207942
4176773,4197780,4200592
4176731,4197525,4200283
4173329,4198488,4204640
4170964,4198751,4207353
4173729,4198926,4204883
4177162,4196912,4199394
4178262,4194010,4195300
4175258,4194149,4198458
4171243,4197466,4205809
4173645,4199243,4205255
4177135,4197818,4200299
4177082,4197344,4199767
4173776,4197693,4203377
4171108,4198206,4206604
4173750,4199049,4204927
4177263,4197653,4200016
4177207,4197148,4199499
4173659,4197546,4203403
4171061,4198004,4206497
4173671,4199036,4205015
4176797,4197947,4200701
4176796,4197411,4200020
4173540,4197719,4203565
4170839,4198364,4207026
4173577,4199159,4205113
4176833,4197747,4200414
4176752,4197233,4199936
4173412,4197547,4203610
4170883,4198099,4206732
4173983,4198455,4203999
4178170,4194597,4195909
4178260,4193643,4194853
4173679,4196696,4202436
4171066,4200169,4208616
4173731,4199193,4205041
4176947,4197691,4200286
4177056,4196706,4199115
4173634,4197268,4203098
4171251,4200221,4208508
4173991,4199222,4204822
4177345,4197652,4199798
4177553,4196578,4198418
4174236,4197093,4202286
4171158,4200315,4208674
4173757,4199475,4205239
4177104,4197839,4200219
4177379,4196777,4198807
4174042,4197397,4202750
4171129,4200255,4208636
4173890,4199204,4204854
4177210,4197608,4199899
4177299,4196532,4198666
4173630,4197085,4202869
4171490,4199355,4207297
4175186,4195881,4200134
4178315,4194019,4195169
4177500,4195564,4197490
4173698,4197200,4202911
4171139,4200155,4208499
4173800,4199103,4204783
4177069,4197466,4199848
4177241,4196356,4198497
4170305,4199845,4208982
4171250,4199719,4207984
4173932,4198586,4204200
4177299,4196466,4198648
4177556,4195546,4197380
4170082,4199822,4209287
4170782,4200011,4208780
4173474,4198881,4205023
4176896,4196824,4199517
4177015,4196040,4198510
4169752,4200000,4209810
4170762,4199983,4208720
4173421,4198922,4205015
4176719,4196829,4199587
4176862,4195991,4198563
4170375,4199513,4208675
4172525,4197106,4204140
4175182,4195690,4200064
4177301,4195963,4198130
4176819,4196227,4198765
4170075,4200380,4209813
4171000,4200318,4208839
4173576,4199172,4205151
4176909,4197046,4199677
4169521,4200123,4210091
4169849,4200204,4209886
4170948,4199946,4208535
4173983,4198338,4203853
4177304,4196381,4198546
4169239,4200333,4210625
4169321,4200704,4210880
4170169,4200394,4209720
4173231,4198609,4204910
4176864,4196714,4199332
4169715,4200207,4210011
4170122,4200214,4209626
4171019,4199997,4208515
4173742,4198390,4204182
4176888,4196444,4199104
4169956,4199328,4208923
4171605,4197285,4205257
4172242,4196937,4204286
4173566,4197605,4203607
4176540,4196667,4199674
4169700,4200295,4210146
4169997,4200389,4209921
4170865,4200273,4208966
4173587,4198700,4204710
4176749,4196845,4199627
4169374,4200573,4210767
4169715,4200651,4210519
4170437,4200398,4209517
4173060,4198670,4205177
4167935,4200893,4212426
4167057,4201788,4214180
4167062,4201909,4214322
4167792,4201332,4213047
4170142,4199989,4209369
4166466,4202522,4215621
4166038,4202936,4216442
4166345,4202894,4216071
4167339,4202153,4214341
4170003,4200389,4209968
4169536,4200221,4210272
4170843,4198267,4206999
4171020,4197978,4206531
4169574,4199969,4209962
4170476,4199885,4208955
4173619,4198941,4204888
4174485,4198516,4203546
4173873,4198625,4204211
4172069,4198835,4206283
4171072,4198902,4207413
4173592,4198411,4204372
4174858,4197925,4202586
4174345,4198055,4203165
4172301,4198301,4205477
4172076,4197082,4204507
4173749,4198387,4204163
4175058,4197792,4202211
4174241,4197989,4203175
4171922,4198532,4206116
4172875,4199017,4205659
4174644,4198173,4203018
4175716,4197495,4201204
4175002,4197184,4201525
4172319,4197980,4205065
4173197,4198375,4204749
4176163,4194965,4198355
4177183,4193751,4196126
4175000,4196085,4200604
4171795,4198008,4205739
4172790,4198987,4205758
4174822,4198069,4202744
4176051,4197296,4200752
4175113,4197055,4201397
4172191,4198082,4205373
4173018,4199067,4205703
4175127,4198073,4202540
4176322,4197331,4200518
4175290,4196926,4201106
4173596,4196342,4202274
4172658,4199187,4206116
4174911,4198081,4202747
4176211,4197236,4200499
4175009,4196867,4201257
4171924,4197766,4205325
4172742,4198817,4205651
4175018,4197789,4202303
4176235,4197017,4200266
4175078,4196684,4201049
4171011,4199101,4207620
4174341,4195671,4200824
4176766,4193882,4196637
4177077,4195257,4197697
4175537,4196379,4200284
4170578,4199956,4208902
4172895,4198867,4205471
4175238,4197692,4201873
4176722,4196350,4198998
4175490,4196264,4200153
4170786,4199797,4208560
4173100,4198781,4205239
4175562,4197592,4201538
4177249,4196153,4198347
4177196,4194396,4196632
4170750,4200127,4208880
4172931,4199066,4205723
4175362,4197750,4201981
4176958,4196367,4198922
4175836,4196342,4199918
4170782,4199872,4208706
4173059,4198815,4205390
4175512,4197647,4201725
4177107,4196324,4198763
4169775,4199961,4209775
4172416,4196906,4204070
4174455,4195362,4200487
4175954,4195979,4199586
4177180,4195861,4198165
4169557,4200676,4210642
4171078,4199977,4208426
4173228,4198800,4205097
4175834,4196992,4200710
4177382,4195873,4197961
4169687,4200450,4210239
4171120,4199788,4208171
4173239,4198550,4204861
4175949,4196539,4200128
4178352,4193686,4194803
4169305,4200648,4210924
4170835,4199882,4208666
4172941,4198681,4205352
4175477,4196867,4200960
4176970,4195709,4198262
4169141,4200366,4210760
4170694,4199583,4208419
4173004,4198393,4204944
4175521,4196709,4200688
4176849,4195677,4198256
4170999,4197451,4205994
4172372,4196541,4203690
4173278,4197632,4203974
4175348,4196823,4201088
4169297,4200352,4210666
4169357,4200437,4210693
4171081,4199574,4208085
4173514,4197882,4203955
4175827,4196368,4200161
4169657,4200257,4210199
4169675,4200290,4210237
4171272,4199468,4207817
4173760,4197679,4203547
4177050,4194483,4197008
4169374,4200627,4210953
4169523,4200629,4210775
4171068,4199731,4208311
4173266,4198067,4204427
4175489,4196563,4200651
4169395,4200385,4210608
4169780,4200432,4210262
4171331,4199628,4207914
4173526,4198042,4204111
4175622,4196642,4200522
4171222,4197450,4205709
4171572,4197149,4205068
4171716,4198577,4206360
4173225,4198011,4204283
4175269,4196664,4200914
4169890,4200197,4209906
4170382,4200019,4209249
4171911,4199160,4206823
4173684,4197703,4203569
4171936,4199101,4206649
4170306,4200013,4209258
4170910,4199713,4208383
4172676,4198234,4205107
4175167,4195405,4199719
4171682,4199549,4207392
4170291,4200354,4209585
4170956,4200033,4208603
4172538,4198689,4205673
4173888,4197559,4203144
4172221,4199372,4206626
4171355,4199973,4208124
4172458,4199285,4206359
4173946,4197920,4203478
4174568,4197176,4202070
4173645,4196532,4202290
4173105,4196722,4203058
4173248,4198271,4204480
4174148,4197842,4203103
4174371,4197160,4202224
4171828,4199410,4206973
4171572,4199621,4207505
4172924,4198714,4205282
4174262,4197372,4202591
4174421,4196828,4201865
4171773,4199354,4206992
4171564,4199556,4207468
4173211,4198520,4204779
4175654,4195548,4199291
4172823,4198887,4205444
4171659,4199556,4207277
4171694,4199547,4207237
4173527,4198098,4203952
4174786,4196919,4201520
4172984,4198654,4205090
4171802,4199414,4207069
4171866,4199473,4207048
4173799,4197986,4203574
4175036,4196838,4201198
4174317,4195581,4200649
4173134,4196062,4202359
4171990,4198522,4206006
4173457,4198050,4204082
4174829,4196852,4201476
4172750,4198915,4205582
4171524,4199771,4207693
4171554,4199874,4207793
4173491,4198484,4204467
4174779,4197245,4201880
4172850,4198837,4205349
4171515,4199571,4207474
4171537,4199463,4207401
4174448,4196394,4201429
4176749,4193070,4195773
4172279,4199194,4206301
4171018,4199942,4208315
4171094,4199930,4208316
4173131,4198480,4204880
4173251,4198647,4204888
4172630,4198971,4205817
4171245,4199573,4207795
4171259,4198983,4207270
4172953,4197788,4204385
4174743,4195500,4200201
4174196,4195377,4200653
4171415,4198629,4206709
4170937,4199288,4207838
4172847,4198079,4204730
4173541,4198653,4204570
4172955,4199011,4205462
4171629,4199639,4207450
4171793,4199089,4206793
4173645,4197820,4203680
4173840,4198271,4203895
4173326,4198564,4204678
4172162,4199089,4206433
4173244,4197086,4203388
4176057,4193695,4197166
4173567,4198624,4204546
4173064,4199028,4205432
4171885,4199669,4207253
4172140,4199162,4206553
4173570,4198665,4204636
4173692,4198530,4204393
4173162,4198711,4205036
4172155,4198792,4206110
4172290,4198516,4205713
4174777,4195302,4199971
4174831,4194632,4199287
4173058,4197541,4204001
4171692,4198800,4206640
4171941,4198524,4206161
4173198,4198754,4204929
4173319,4198662,4204770
4172837,4198859,4205480
4171898,4198973,4206491
4172163,4198649,4205928
4173348,4198365,4204488
4173420,4198297,4204313
4172937,4198406,4204845
4172944,4196999,4203461
4174269,4194622,4199768
4173002,4198828,4205277
4173306,4198679,4204825
4172768,4198856,4205485
4171666,4198957,4206690
4171722,4198601,4206325
4173126,4198692,4204981
4173271,4198585,4204699
4172738,4198732,4205372
4171626,4198776,4206570
4174991,4195620,4200067
4174658,4195187,4199988
4173597,4197533,4203380
4172828,4198387,4204968
4171596,4198707,4206521
4173462,4198762,4204691
4173069,4198852,4205226
4173223,4198508,4204734
4172906,4198086,4204588
4171566,4198405,4206307
4173489,4198602,4204565
4173196,4198652,4204894
4173481,4198303,4204287
4174083,4196613,4201995
4174249,4194866,4200020
4173209,4198696,4204893
4172937,4198712,4205183
4173270,4198372,4204507
4172927,4197997,4204497
4171513,4198338,4206297
4173650,4198588,4204347
4173436,4198624,4204643
4173692,4198378,4204129
4173368,4198034,4204098
4172007,4198269,4205716
4175001,4195104,4199572
4173638,4197795,4203578
4173565,4198546,4204390
4173271,4198206,4204340
4173891,4198562,4204110
4173859,4198410,4203999
4173741,4198236,4203957
4174314,4197373,4202485
4173862,4197243,4202796
4173908,4198350,4203897
4173895,4198194,4203754
4173870,4197875,4203478
4175404,4195487,4199541
4176093,4193226,4196595
4173834,4198732,4204404
4173719,4198571,4204310
4173601,4198367,4204198
4174213,4197469,4202637
4173843,4197279,4202828
4173931,4198628,4204166
4173876,4198480,4203992
4173809,4198271,4203850
4174380,4197397,4202411
4173956,4197205,4202629
4175144,4195235,4199592
4173994,4197676,4203213
4173597,4198522,4204394
4174208,4197782,4202953
4172822,4199559,4206198
4174026,4198773,4204182
4174011,4198450,4203821
4174124,4197777,4203013
4174503,4197162,4202021
4172805,4199295,4205928
4174045,4198591,4203899
4174063,4198218,4203460
4175113,4195931,4200182
4176503,4193150,4195999
4172366,4199634,4206648
4173635,4198810,4204533
4173647,4198479,4204183
4173771,4197811,4203425
4174178,4197179,4202355
4172441,4199347,4206340
4173698,4198661,4204312
4173735,4198350,4203912
4173869,4197595,4203059
4174277,4197066,4202103
4174014,4196168,4201601
4174063,4197784,4203189
4173430,4198572,4204572
4173571,4197976,4203861
4174002,4197393,4202817
4172375,4199594,4206630
4173683,4198805,4204516
4173712,4198468,4204145
4173815,4197805,4203390
4170889,4200119,4208632
4172699,4199348,4206103
4174158,4198331,4203564
4175441,4195889,4199799
4176544,4193292,4196200
4170662,4200558,4209365
4172474,4199825,4206811
4173881,4198915,4204397
4174080,4198046,4203310
4173931,4197493,4202960
4170817,4200327,4208917
4172674,4199503,4206235
4174053,4198539,4203869
4174183,4197708,4202863
4173951,4197355,4202725
4172438,4197216,4204082
4173031,4198625,4204922
4173888,4198677,4204074
4174079,4197962,4203164
4173933,4197649,4203032
4171005,4200452,4208812
4172837,4199593,4206092
4174209,4198582,4203724
4174030,4197715,4203022
4173366,4197303,4203310
4170900,4200219,4208770
4173074,4199226,4205601
4175335,4196577,4200654
4176474,4193586,4196477
4171006,4200097,4208485
4171087,4200272,4208615
4172960,4199298,4205770
4174617,4197773,4202525
4174631,4197150,4201826
4171150,4199904,4208153
4171226,4200068,4208266
4173173,4198969,4205235
4174793,4197435,4201990
4174743,4196977,4201558
4172389,4196678,4203725
4171017,4199229,4207700
4172754,4199236,4206002
4174624,4197743,4202563
4174558,4197216,4202028
4170951,4199978,4208472
4171121,4200077,4208402
4173171,4199007,4205289
4174864,4197483,4202089
4174789,4196949,4201666
4171038,4199844,4208166
4171243,4199800,4207998
4174130,4197141,4202452
4176952,4193411,4195876
4175758,4194536,4198213
4170902,4200126,4208633
4171101,4200245,4208566
4173100,4199161,4205533
4174767,4197575,4202269
4172245,4199026,4206285
4171058,4199794,4208210
4171284,4199771,4207992
4173687,4198110,4203921
4175226,4196801,4201028
4173714,4195449,4201198
4171267,4198704,4206927
4171116,4199849,4208226
4173567,4198237,4204167
4175142,4197005,4201330
4172115,4198948,4206324
4170902,4199713,4208300
4171197,4199655,4207955
4173619,4197976,4203866
4175165,4196615,4200933
4172340,4198956,4206091
4171177,4199527,4207830
4172216,4197952,4205243
4175817,4194016,4197751
4176546,4194286,4197268
4172236,4199333,4206576
4171114,4199994,4208402
4171448,4199912,4207977
4173871,4198297,4203946
4173231,4198632,4204849
4172678,4199067,4205808
4171585,4199711,4207484
4172076,4199158,4206494
4174343,4197784,4202905
4174583,4195024,4199860
4172710,4197927,4204665
4171183,4199605,4207843
4171676,4198969,4206753
4174012,4197570,4203022
4172976,4198447,4204910
4172366,4198761,4205857
4171205,4199290,4207568
4171700,4198594,4206430
4174162,4197100,4202516
4173056,4198391,4204859
4172444,4198714,4205802
4172205,4197855,4205197
4174109,4195026,4200458
4175431,4194979,4199083
4172763,4198795,4205530
4172274,4199196,4206403
4171226,4199758,4208053
4171831,4199070,4206752
4174237,4197615,4202798
4172980,4198617,4205079
4172416,4199019,4206005
4171389,4199623,4207632
4171919,4199008,4206554
4174909,4194686,4199196
4173506,4197402,4203280
4172380,4198894,4205901
4171432,4198902,4206878
4171797,4198513,4206155
4173436,4198402,4204440
4173281,4198456,4204689
4172694,4198675,4205494
4171753,4198655,4206431
4172095,4198243,4205672
4173699,4198260,4203970
4173553,4198201,4204047
4173712,4196969,4202688
4174224,4194757,4199995
4173845,4195742,4201386
4173478,4198324,4204252
4173328,4198288,4204390
4172792,4198475,4205126
4171990,4198542,4205945
4172506,4198204,4205123
4173649,4198179,4204022
4173435,4198234,4204258
4172899,4198419,4204931
4172098,4198400,4205729
4172581,4197956,4204882
4173696,4197344,4203188
4173255,4198406,4204630
4172726,4198628,4205392
4171987,4198613,4206120
4174728,4197798,4202551
4173735,4198098,4203818
4173649,4198031,4203786
4173365,4197701,4203702
4172414,4197835,4204800
4174828,4197676,4202274
4173911,4197816,4203289
4174563,4196222,4201010
4175358,4193706,4197735
4173454,4195645,4201699
4174522,4197831,4202720
4173615,4198072,4203898
4173592,4197960,4203781
4173314,4197683,4203761
4172391,4197991,4205018
4174821,4197786,4202320
4173841,4198012,4203567
4173756,4197938,4203627
4173459,4197668,4203633
4172487,4197829,4204765
4174960,4196756,4201279
4173571,4198103,4203927
4173441,4198047,4203972
4173121,4197745,4204024
4172252,4197924,4205126
4174902,4197928,4202465
4173804,4198127,4203741
4173662,4197983,4203740
4173369,4197678,4203737
4175401,4197832,4201834
4174844,4197664,4202200
4174834,4196086,4200662
4176026,4193252,4196674
4174582,4194914,4199791
4175064,4198090,4202456
4174597,4198116,4202950
4173745,4198185,4203885
4173902,4197508,4203050
4173432,4197465,4203471
4175186,4198046,4202371
4174722,4198031,4202712
4173873,4198124,4203631
4174056,4197543,4202916
4173606,4197438,4203315
4175328,4197034,4201172
4174355,4198138,4203266
4173517,4198212,4204207
4173751,4197559,4203343
4173290,4197510,4203779
4174739,4198094,4202925
4174344,4197965,4203159
4173660,4198020,4203895
4173860,4197412,4203050
4173294,4198861,4205041
4174791,4197951,4202593
4175299,4196135,4200224
4175959,4193449,4196897
4175161,4194655,4198913
4172920,4199046,4205601
4174438,4198196,4203111
4174077,4197989,4203206
4173520,4197529,4203322
4173542,4197047,4202902
4173088,4198799,4205155
4174542,4197985,4202858
4174145,4197806,4203068
4173572,4197343,4203152
4173599,4196858,4202663
4173292,4197862,4203980
4174284,4198126,4203215
4173843,4197994,4203513
4173375,4197539,4203573
4173490,4197107,4203061
4173009,4198932,4205485
4174501,4198126,4203158
4174161,4197964,4203268
4173661,4197560,4203349
4173664,4197232,4203049
4173363,4198806,4204889
4175539,4196467,4200297
4176025,4194081,4197428
4174561,4195093,4199975
4171228,4199877,4208071
4173317,4198943,4205091
4174744,4197937,4202616
4174306,4197143,4202248
4173399,4196879,4202933
4170888,4199594,4208258
4173303,4198618,4204873
4175000,4197733,4202203
4174910,4197024,4201502
4174321,4196748,4201838
4171528,4198775,4206633
4173074,4198964,4205332
4174652,4197993,4202769
4174541,4197271,4202110
4174037,4197014,4202370
4171322,4199811,4207960
4173223,4198849,4205116
4174639,4197821,4202609
4174647,4196953,4201719
4174177,4196678,4201930
4171344,4199393,4207480
4173949,4197078,4202570
4176338,4193894,4197040
4175576,4194566,4198466
4173942,4196717,4202215
4171156,4199803,4208095
4173110,4198986,4205344
4174603,4198018,4202868
4174592,4197260,4202033
4171359,4199680,4207683
4171395,4199838,4207885
4173428,4198810,4204873
4175076,4197294,4201652
4174966,4196836,4201267
4171440,4198887,4206895
4171063,4200258,4208657
4173056,4199227,4205656
4174762,4197659,4202323
4174662,4197113,4201807
4171034,4199901,4208217
4171162,4200022,4208246
4173174,4198943,4205177
4174860,4197478,4201925
4174727,4196935,4201528
4171048,4199702,4207998
4171888,4198453,4205975
4174855,4195108,4199714
4175825,4194829,4198499
4174586,4196734,4201587
4170983,4200078,4208555
4171162,4200205,4208518
4173147,4199166,4205524
4174872,4197599,4202244
4174774,4197060,4201750
4171142,4199887,4208308
4171257,4199988,4208305
4173332,4198903,4205125
4175024,4197334,4201785
4172709,4197803,4204604
4171019,4199829,4208321
4171178,4199890,4208215
4173432,4198256,4204312
4175028,4196930,4201378
4172622,4198885,4205740
4171408,4199667,4207739
4171428,4199719,4207787
4173537,4198261,4204197
4175134,4197040,4201364
4172873,4198737,4205254
4172326,4198307,4205484
4173315,4196268,4202497
4174768,4195896,4200661
4175114,4196869,4201228
4172811,4199067,4205710
4171606,4199867,4207714
4171603,4199993,4207876
4173664,4198595,4204424
4175235,4197355,4201610
4173056,4198974,4205373
4171746,4199763,4207468
4171642,4199859,4207695
4173679,4198324,4204126
4175576,4196522,4200410
4172607,4199033,4205913
4171339,4199807,4207937
4171260,4199903,4208111
4173318,4198432,4204583
4173527,4198291,4204243
4172885,4198575,4205125
4171504,4199176,4207130
4171539,4198723,4206711
4173559,4197508,4203531
4173615,4198080,4204007
4173729,4197115,4202943
4173254,4195870,4202092
4172472,4197032,4204051
4173476,4197644,4203742
4173360,4198486,4204606
4172757,4198908,4205600
4171434,4199563,4207600
4171435,4199095,4207145
4173402,4197789,4203880
4173398,4198246,4204281
4172798,4198594,4205226
4171428,4199248,4207327
4171364,4198866,4207048
4173747,4197164,4202954
4173021,4198613,4205103
4172373,4199135,4206251
4171205,4199779,4208124
4171312,4199382,4207634
4173300,4198681,4204840
4173386,4198527,4204597
4172739,4198696,4205435
4171453,4198793,4206907
4171325,4198523,4206812
4173501,4198224,4204295
4174272,4196699,4201975
4174447,4194956,4200026
4172460,4196725,4203801
4171244,4198590,4206913
4173326,4198611,4204801
4173320,4198552,4204696
4172730,4198726,4205454
4171512,4198750,4206757
4171246,4198575,4206879
4173363,4198445,4204602
4173377,4198383,4204491
4172754,4198556,4205278
4171525,4198620,4206606
4171818,4197830,4205553
4173041,4198492,4205027
4173061,4198468,4204998
4172427,4198700,4205842
4171182,4198814,4207183
4171099,4198583,4207012
4173304,4198411,4204603
4173372,4198404,4204480
4172751,4198607,4205318
4171480,4198741,4206754
4173994,4198059,4203548
4174368,4196602,4201690
4175362,4194183,4198351
4174363,4195355,4200565
4171789,4198029,4205822
4173708,4198370,4204157
4173281,4198396,4204604
4173332,4198079,4204247
4172889,4197714,4204325
4171498,4198105,4206189
4173895,4198296,4203908
4177373,4194056,4196126
4176094,4195639,4199054
4174905,4198314,4202901
4173774,4199871,4205560
4171931,4201264,4208786
4171504,4201613,4209574
4173995,4200661,4206099
4174119,4200518,4205803
4173368,4200679,4206732
4171958,4200705,4208202
4171893,4200427,4208014
4174057,4199832,4205215
4174346,4199208,4204329
4174799,4197139,4201827
4173927,4196472,4202039
4174405,4199370,4204482
4173859,4199329,4204985
4173884,4199006,4204623
4173314,4198659,4204822
4172096,4199027,4206464
4174355,4198770,4203904
4173630,4198814,4204686
4173588,4198562,4204448
4173245,4198231,4204435
4172126,4198574,4206001
4175236,4196034,4200372
4173471,4198545,4204609
4173346,4198807,4205011
4173045,4198496,4204984
4171916,4198782,4206397
4174124,4198661,4204058
4173566,4198723,4204662
4173652,4198502,4204364
4173355,4198189,4204367
4172101,4198579,4206043
4174308,4198511,4203724
4174000,4198031,4203546
4175068,4195495,4199958
4174855,4194577,4199299
4174016,4198757,4204317
4174072,4198417,4203873
4173748,4198152,4203905
4174177,4197307,4202663
4173711,4197213,4203064
4174009,4198580,4204076
4174153,4198273,4203607
4173952,4198056,4203611
4174386,4197283,4202406
4173887,4197239,4202868
4174607,4196120,4201079
4173903,4197965,4203624
4173637,4198166,4204093
4174056,4197455,4202922
4173524,4197343,4203342
4173841,4198483,4204127
4173965,4198248,4203761
4173768,4198098,4203852
4174121,4197366,4202770
4173502,4197324,4203340
4174154,4198501,4203886
4174505,4197719,4202710
4175267,4195151,4199413
4175774,4193795,4197634
4173874,4196433,4202140
4174085,4198701,4204202
4174132,4198541,4203952
4173707,4198488,4204392
4173985,4197802,4203416
4172835,4199502,4206226
4174485,4198578,4203623
4174446,4198201,4203260
4174166,4197641,4202970
4174276,4197143,4202371
4174195,4197132,4202482
4174591,4198403,4203352
4174302,4198445,4203677
4173922,4197916,4203489
4173952,4197499,4203052
4172688,4199557,4206406
4174263,4198642,4203872
4174156,4198375,4203705
4173800,4197938,4203619
4173838,4197512,4203168
4172832,4199552,4206321
4174700,4198139,4202955
4175659,4195421,4199218
4175620,4194283,4198181
4174303,4196509,4201754
4172820,4199697,4206442
4174447,4198755,4203809
4174140,4198434,4203768
4173532,4197918,4203856
4173469,4197478,4203484
4172804,4199400,4206154
4174602,4198478,4203385
4174336,4198249,4203419
4173725,4197871,4203650
4171836,4198112,4205836
4172990,4199104,4205693
4174577,4198462,4203415
4174580,4197736,4202652
4173872,4197546,4203199
4170945,4200211,4208779
4173105,4199264,4205699
4174720,4198215,4202942
4174719,4197511,4202192
4174052,4197279,4202727
4171103,4200052,4208462
4173464,4198585,4204608
4176247,4195061,4198319
4176588,4193368,4196337
4174249,4195823,4201157
4170888,4200195,4208821
4173077,4199209,4205666
4174722,4198158,4202973
4174424,4197352,4202454
4173438,4197100,4203209
4170630,4200050,4208910
4173172,4199163,4205514
4175061,4198133,4202565
4174809,4197355,4201989
4173832,4197076,4202754
4171217,4200028,4208420
4173159,4199524,4205897
4174888,4198468,4203012
4174895,4197688,4202192
4171248,4200046,4208257
4171370,4200174,4208322
4173437,4199079,4205189
4175281,4197487,4201700
4175159,4196868,4201171
4171313,4199908,4208098
4171725,4199589,4207389
4175095,4196168,4200607
4177478,4193612,4195691
4175832,4195781,4199452
4171176,4200406,4208681
4171303,4200558,4208797
4173593,4199377,4205357
4175554,4197723,4201673
4175242,4197218,4201392
4171287,4200100,4208356
4171412,4200185,4208343
4173483,4199059,4205133
4175326,4197438,4201652
4175191,4196812,4201164
4170960,4199757,4208373
4170955,4200304,4208893
4173106,4199143,4205566
4174957,4197546,4202024
4172191,4199300,4206497
4171166,4200038,4208283
4171363,4200064,4208129
4173707,4198453,4204161
4175429,4197055,4201028
4172402,4199300,4206351
4171524,4199682,4207605
4172757,4197452,4204171
4175588,4194693,4198564
4175963,4195800,4199245
4172202,4199355,4206605
4171101,4200125,4208450
4171293,4200113,4208221
4173689,4198413,4204168
4175349,4197013,4201109
4172325,4199278,4206405
4171205,4199935,4208162
4171390,4199841,4207887
4173780,4198200,4203877
4175495,4196751,4200692
4172107,4199054,4206350
4170946,4200030,4208521
4171195,4199931,4208246
4173545,4198281,4204233
4175179,4196962,4201251
4172312,4199120,4206298
4171275,4199861,4208111
4171454,4199919,4208029
4173772,4198299,4204080
4173132,4198676,4205037
4172857,4198618,4205251
4172918,4197149,4203681
4173547,4195990,4201916
4174316,4196913,4202125
4172911,4198983,4205608
4172346,4199361,4206474
4171248,4199945,4208154
4171638,4199384,4207256
4173924,4197809,4203444
4173000,4198799,4205241
4172438,4199198,4206192
4171342,4199757,4207876
4171782,4199235,4206948
4174176,4197827,4203115
4172870,4198824,4205429
4172172,4199537,4206871
4171093,4199983,4208401
4171383,4199344,4207455
4173726,4197989,4203758
4173031,4199155,4205485
4172496,4199500,4206326
4171367,4199994,4208003
4171627,4199401,4207233
4173936,4198030,4203596
4173471,4198317,4204312
4173926,4196398,4201940
4172830,4196545,4203202
4171946,4198358,4205947
4173155,4198722,4205006
4173025,4198727,4205211
4172476,4198945,4205980
4171437,4198987,4207118
4171556,4198697,4206687
4173358,4198763,4204824
4173173,4198774,4205052
4172531,4198906,4205871
4171478,4198884,4206916
4171648,4198539,4206376
4173172,4198517,4204788
4172782,4199012,4205661
4172242,4199222,4206432
4171237,4199291,4207517
4171502,4198941,4206946
4173147,4198688,4205000
4173012,4198748,4205162
4172470,4198961,4205842
4171502,4198984,4206834
4171593,4198657,4206453
4173428,4198026,4203993
4174252,4195812,4200987
4174015,4195243,4200729
4172016,4197795,4205284
4171681,4198848,4206720
4173144,4198949,4205384
4172958,4198998,4205613
4172485,4199230,4206264
4171670,4199275,4207105
4174215,4198444,4203694
4173308,4198634,4204815
4173153,4198424,4204784
4172689,4198035,4204833
4171599,4198159,4206062
4174013,4197918,4203432
4172856,4198641,4205319
4172773,4198480,4205232
4172470,4198116,4205143
4171377,4198420,4206558
4174019,4198337,4203775
4173170,4198592,4204889
4173077,4198567,4204983
4172731,4198293,4205076
4171636,4198571,4206446
4174472,4198036,4203093
4174539,4196068,4201045
4174682,4194979,4199816
4173044,4197128,4203623
4171316,4198811,4207005
4174181,4198685,4203989
4173198,4198968,4205276
4173094,4198874,4205301
4172799,4198487,4205188
4174689,4198442,4203299
4174278,4198333,4203507
4173455,4198390,4204341
4173577,4197755,4203608
4173091,4197571,4203951
4174622,4198109,4202966
4173999,4198492,4203940
4173144,4198513,4204883
4173349,4197795,4203953
4172869,4197696,4204311
4174620,4198282,4203188
4174259,4198136,4203354
4173410,4198275,4204374
4173574,4197776,4203710
4173184,4197656,4203996
4174963,4197769,4202260
4175582,4195411,4199237
4174937,4194535,4199102
4173742,4196416,4202182
4172710,4197712,4204496
4174749,4198305,4203062
4174318,4198270,4203417
4173344,4198455,4204556
4173441,4197862,4203862
4172978,4197713,4204243
4174811,4198158,4202955
4174422,4198161,4203259
4173542,4198326,4204310
4173687,4197650,4203567
4173021,4198974,4205521
4174644,4198306,4203265
4174327,4198046,4203288
4173610,4197615,4203537
4173553,4197185,4203127
4173103,4198985,4205463
4174842,4198122,4202836
4174553,4197901,4202811
4173876,4197495,4203060
4173787,4197055,4202756
4173552,4198589,4204554
4176125,4195310,4198646
4175758,4194287,4198028
4173977,4196499,4202059
4173577,4197300,4203232
4173209,4199249,4205671
4174926,4198362,4203035
4174564,4198168,4203097
4173852,4197814,4203449
4173836,4197508,4203207
4173190,4199112,4205516
4174751,4198195,4202976
4174460,4197975,4203030
4173914,4197506,4203115
4174782,4195690,4200476
4172917,4199275,4205981
4174616,4198343,4203266
4174235,4198139,4203356
4173609,4197743,4203612
4171012,4199967,4208530
4173126,4199051,4205544
4174753,4198057,4202904
4174712,4197252,4202106
4173986,4197042,4202601
4171548,4199488,4207576
4174771,4196108,4200954
4176317,4194276,4197591
4174876,4196076,4200817
4173736,4197171,4203025
4170981,4200034,4208685
4173085,4199072,4205619
4174695,4197990,4202886
4174631,4197228,4202089
4173859,4197121,4202777
4171061,4199943,4208407
4173185,4198989,4205326
4174758,4197983,4202684
4174472,4197125,4202050
4174449,4195387,4200451
4170748,4200251,4209060
4172909,4199208,4205880
4174633,4198063,4202991
4174530,4197249,4202290
4173789,4197069,4202885
4170902,4199922,4208620
4172997,4198985,4205646
4174641,4197948,4202953
4174576,4197175,4202155
4171180,4199211,4207599
4172351,4197222,4204444
4174893,4195188,4199948
4175569,4195865,4199916
4174672,4196701,4201571
4170778,4199851,4208665
4171000,4199979,4208581
4173133,4198888,4205342
4174929,4197261,4201916
4174693,4196731,4201621
4170837,4199701,4208433
4170928,4199798,4208508
4173212,4198711,4205151
4175204,4197110,4201456
4175849,4195215,4198883
4170020,4200011,4209607
4170304,4200143,4209476
4172947,4199031,4205710
4175014,4197467,4201989
4174870,4196929,4201548
4171012,4200121,4208661
4171184,4200246,4208646
4173376,4199129,4205334
4175216,4197537,4201873
4172512,4198668,4205716
4172399,4197344,4204454
4172780,4196537,4203269
4173969,4197024,4202645
4175166,4196900,4201294
4172098,4199207,4206603
4170988,4199872,4208409
4171208,4199784,4208162
4173602,4198107,4204102
4175361,4196763,4200964
4172102,4199231,4206629
4170974,4199886,4208416
4171298,4199809,4208056
4173966,4198043,4203646
4176419,4195364,4198452
4171760,4199414,4207232
4170794,4200037,4208829
4171076,4199930,4208455
4173564,4198297,4204295
4175365,4196881,4201031
4171973,4199043,4206643
4170872,4199728,4208376
4171104,4199664,4208045
4173656,4197964,4203807
4175442,4196599,4200662
4173525,4196497,4202462
4172828,4196262,4202871
4171815,4198507,4206193
4173593,4198208,4204160
4173071,4198692,4205169
4172442,4199031,4206110
4171381,4199587,4207728
4171780,4199010,4206753
4174040,4197577,4203064
4173272,4198367,4204531
4172685,4198719,4205453
4171560,4199314,4207218
4171869,4198780,4206407
4174904,4196183,4200752
4172850,4198753,4205325
4172232,4199188,4206378
4171164,4199717,4208009
4171535,4199206,4207142
4173803,4197858,4203589
4172974,4198613,4205147
4172302,4199047,4206225
4171133,4199693,4208042
4171457,4199161,4207167
4173858,4197708,4203353
4173799,4196106,4201770
4173725,4195537,4201330
4171567,4198610,4206531
4171359,4199454,4207577
4173739,4198037,4203805
4172711,4199064,4205925
4172063,4199430,4206900
4171017,4199931,4208448
4171511,4199336,4207406
4173239,4198627,4204853
4172864,4198739,4205368
4172229,4198993,4206269
4171306,4198962,4207242
4172326,4197355,4204585
4172826,4198905,4205585
4172529,4199033,4206065
4171953,4199246,4206833
4171027,4199257,4207741
4171354,4198886,4207068
4173147,4198777,4205130
4172761,4198963,4205693
4172123,4199206,4206575
4171134,4199209,4207572
4171439,4198797,4206886
4174470,4195866,4200896
4174219,4195260,4200588
4172391,4198044,4205201
4170989,4199215,4207753
4171331,4198779,4206965
4173131,4198519,4204880
4172768,4198632,4205363
4172133,4198847,4206209
4171172,4198832,4207149
4171417,4198506,4206626
4173256,4198487,4204668
4172889,4198648,4205182
4172350,4198788,4205866
4172510,4197535,4204496
4174361,4198348,4203443
4173251,4198584,4204784
4172911,4198519,4205074
4172475,4198218,4205195
4171386,4198455,4206549
4174619,4198174,4203067
4173513,4198516,4204513
4173201,4198529,4204815
4172807,4198238,4204911
4171825,4198486,4206150
4176064,4195291,4198737
4175024,4194896,4199386
4173503,4197425,4203404
4172610,4198413,4205283
4171669,4198677,4206540
4174468,4198319,4203331
4173451,4198682,4204707
4173169,4198546,4204872
4172640,4198133,4204983
4171481,4198343,4206411
4174567,4198053,4202890
4173426,4198436,4204383
4173137,4198356,4204666
4173652,4196767,4202639
4174816,4198251,4202891
4174378,4198127,4203167
4173224,4198244,4204462
4173128,4197746,4204115
4172581,4197676,4204628
4174990,4198137,4202635
4174552,4198132,4203021
4173466,4198401,4204358
4173426,4197919,4203912
4172799,4197882,4204515
4176204,4195478,4198676
4176178,4194445,4197733
4174033,4197274,4202758
4173168,4198311,4204612
4172688,4198254,4205061
4175157,4198555,4202913
4174675,4198539,4203306
4173519,4198755,4204657
4173428,4198168,4204191
4172914,4198098,4204680
4175242,4198439,4202624
4174806,4198315,4202877
4173693,4198367,4204119
4174381,4196567,4201668
4175187,4194230,4198516
4174916,4198419,4203020
4174467,4198369,4203347
4173314,4198570,4204690
4173117,4198006,4204333
4173246,4199153,4205467
4175056,4198188,4202650
4174762,4197973,4202637
4173929,4197683,4203227
4173606,4197474,4203451
4174569,4196336,4201312
4176639,4194297,4197253
4175196,4196629,4201006
4173610,4197883,4203812
4173349,4197717,4203986
4173102,4199255,4205756
4174848,4198295,4203000
4174486,4198126,4203143
4173625,4197835,4203686
4173307,4197484,4203649
4173141,4199124,4205569
4174854,4198261,4202879
4174589,4197969,4202835
4174572,4196370,4201305
4175686,4193656,4197425
4172955,4199555,4206156
4174595,4198541,4203467
4174255,4198293,4203512
4173472,4197950,4203984
4173150,4197610,4204000
4173008,4199328,4205905
4174697,4198359,4203206
4174432,4198084,4203197
4173676,4197794,4203667
4172139,4197969,4205434
4174907,4195706,4200420
4175509,4196892,4200989
4174398,4197573,4202650
4173069,4197519,4203951
4170910,4200224,4208863
4173173,4199126,4205547
4174870,4198028,4202701
4174790,4197302,4201966
4173912,4197149,4202717
4170809,4199982,4208752
4173253,4199032,4205374
4175006,4197864,4202424
4175799,4195763,4199479
4176226,4193248,4196531
4170867,4200318,4208985
4173094,4199230,4205671
4174871,4198166,4202804
4174587,4197444,4202286
4173392,4197256,4203308
4171252,4200222,4208513
4173492,4199191,4205230
4175301,4198050,4202215
4175168,4197250,4201475
4174262,4197166,4202364
4172911,4196759,4203398
4173999,4197933,4203509
4175154,4198096,4202496
4175046,4197304,4201748
4170958,4199800,4208332
4171189,4199843,4208235
4173418,4198672,4204844
4175354,4197040,4201184
4175290,4196495,4200675
4170806,4199705,4208451
4171141,4199701,4208177
4173580,4198488,4204512
4176323,4195625,4198857
4177415,4192714,4194831
4170511,4199928,4209012
4170833,4199951,4208740
4173328,4198719,4205037
4175359,4197045,4201280
4175129,4196483,4200910
4170477,4199759,4208847
4170766,4199732,4208580
4173233,4198510,4204842
4175192,4196800,4201108
4175031,4196349,4200757
4172089,4196416,4203870
4171199,4198674,4207025
4173065,4198600,4205063
4175008,4197113,4201562
4171801,4199312,4207021
4170681,4199892,4208803
4170986,4199693,4208361
4173695,4197989,4203867
4175550,4196582,4200536
4171996,4199197,4206793
4170915,4199811,4208545
4171274,4199553,4207931
4174747,4196438,4201267
4177762,4192746,4194532
4171657,4199384,4207358
4170613,4199966,4208987
4171003,4199778,4208362
4173753,4198018,4203880
4175610,4196613,4200639
4171705,4199278,4207127
4170726,4199962,4208801
4171189,4199817,4208234
4173980,4198074,4203724
4175863,4196671,4200388
4173309,4196054,4202305
4171151,4199020,4207450
4171098,4200050,4208598
4173742,4198283,4204184
4175527,4196787,4200851
4171815,4199418,4207181
4170840,4200011,4208764
4171277,4199818,4208144
4173991,4197994,4203590
4172592,4198547,4205514
4171782,4198951,4206662
4170705,4199365,4208176
4172195,4197376,4204727
4176227,4193547,4196857
4172431,4198985,4206083
4171788,4199370,4207086
4170701,4199860,4208646
4171107,4199172,4207607
4173591,4197679,4203710
4172840,4198911,4205594
4172212,4199368,4206666
4171156,4199896,4208260
4171605,4199299,4207222
4174044,4197823,4203361
4174441,4195134,4200172
4172665,4197834,4204650
4171003,4199723,4208296
4171456,4199188,4207314
4173839,4197803,4203508
4172802,4198751,4205412
4172178,4199105,4206433
4171082,4199571,4207985
4171508,4198949,4206945
4173924,4197530,4203106
4172892,4198540,4205179
4172215,4198920,4206216
4171809,4198385,4206114
4173637,4195553,4201481
4173097,4198710,4205111
4172760,4198835,4205604
4172133,4199056,4206459
4171169,4199072,4207444
4171462,4198657,4206748
4173269,4198557,4204766
4172849,4198793,4205434
4172158,4199078,4206375
4171207,4199046,4207317
4171405,4198615,4206741
4174642,4194665,4199507
4173019,4197243,4203711
4171771,4199062,4206755
4170950,4199159,4207658
4171446,4198707,4206710
4173074,4198463,4204873
4172615,4198606,4205489
4171990,4198810,4206318
4171097,4198771,4207164
4171380,4198342,4206432
4173230,4198337,4204613
4172844,4198434,4205168
4172865,4197562,4204284
4173497,4195257,4201315
4173290,4195575,4201846
4172973,4198533,4205079
4172556,4198787,4205763
4171904,4199081,4206745
4171017,4199070,4207656
4174455,4197954,4203059
4173304,4198346,4204567
4172872,4198375,4205028
4172382,4198079,4205272
4171341,4198358,4206608
4176100,4193989,4197375
4173717,4196891,4202695
4172668,4198469,4205319
4172310,4198304,4205487
4171342,4198593,4206751
4174545,4198126,4203006
4173350,4198515,4204605
4172912,4198562,4205150
4172412,4198287,4205394
4171351,4198476,4206663
4174653,4198071,4202885
4173502,4198415,4204430
4173732,4197295,4203054
4174589,4194655,4199487
4172829,4196057,4202653
4174484,4198141,4203109
4173200,4198530,4204748
4172792,4198560,4205216
4172290,4198317,4205504
4175047,4198033,4202462
4174634,4197947,4202816
4173517,4198129,4204145
4173336,4197679,4203875
4172682,4197637,4204510
4176521,4194263,4197237
4175028,4196781,4201265
4173293,4198373,4204560
4173139,4197907,4204235
4172653,4197905,4204723
4175059,4198059,4202529
4174620,4197964,4202808
4173425,4198216,4204240
4173253,4197774,4204001
4172757,4197647,4204441
4175153,4198061,4202440
4174675,4197989,4202774
4174265,4196908,4202134
4175460,4194039,4198140
4174279,4195243,4200509
4175188,4198335,4202726
4174688,4198308,4203094
4173404,4198582,4204565
4173317,4198083,4204158
4172715,4198008,4204780
4175015,4198318,4202801
4174569,4198242,4203120
4173451,4198437,4204453
4173303,4197921,4204126
4174763,4195274,4200037
4175429,4196656,4200740
4174438,4197947,4202981
4173506,4197771,4203768
4173307,4197522,4203764
4173179,4199099,4205427
4174951,4198107,4202616
4174584,4197848,4202706
4173715,4197554,4203301
4173403,4197272,4203386
4173289,4198971,4205259
4175042,4197915,4202383
4175415,4196422,4200448
4175922,4193731,4197253
4174966,4194594,4199096
4173004,4199226,4205798
4174946,4198205,4202792
4174521,4197936,4202850
4173634,4197646,4203459
4173373,4197502,4203629
4173293,4199119,4205451
4175066,4198175,4202699
4174599,4198013,4202902
4173687,4197722,4203521
4173389,4197422,4203570
4173699,4197832,4203715
4174906,4198184,4202827
4174428,4198100,4203178
4173426,4197835,4203948
4170957,4200172,4208864
4173340,4199078,4205452
4175186,4197989,4202439
4174988,4197261,4201787
4173870,4197200,4202863
4170982,4200003,4208646
4173418,4198824,4205077
4175839,4196422,4200209
4176946,4193230,4195855
4175106,4194270,4198764
4170910,4200395,4209069
4173380,4199274,4205494
4175239,4198070,4202367
4174805,4197292,4201982
4173330,4197339,4203559
4170620,4200224,4209209
4173506,4199089,4205152
4175557,4197899,4201888
4175279,4197091,4201346
4174153,4197025,4202420
4171456,4198827,4206895
4173316,4199049,4205316
4175265,4197981,4202269
4175039,4197337,4201725
4173951,4197408,4202886
4171153,4200280,4208689
4173621,4199164,4205142
4175481,4198051,4202057
4175079,4197330,4201645
4171049,4200132,4208631
4171456,4200057,4208191
4174553,4197620,4202659
4177889,4193525,4195157
4176767,4193922,4196740
4170697,4200509,4209338
4171182,4200447,4208810
4173654,4199177,4205112
4175682,4197459,4201326
4175253,4196944,4201226
4170882,4200223,4208876
4171308,4200251,4208481
4173743,4198957,4204758
4175701,4197235,4201055
4175152,4196680,4201027
4171260,4198754,4207020
4171036,4200199,4208713
4173434,4199013,4205137
4175452,4197363,4201465
4175152,4196887,4201262
4170843,4200172,4208824
4171140,4200116,4208514
4173417,4198922,4205081
4175357,4197332,4201525
4175217,4196852,4201151
4171192,4199963,4208334
4171922,4198955,4206631
4175114,4195336,4199802
4176641,4194416,4197364
4172186,4199367,4206771
4171186,4199990,4208395
4171347,4199874,4208132
4173629,4198164,4204146
4175342,4196719,4200982
4172349,4198991,4206232
4171402,4199734,4207924
4171617,4199664,4207643
4173953,4197955,4203570
4175619,4196597,4200539
4172462,4197858,4205054
4171003,4199756,4208393
4171195,4199673,4208091
4173545,4197982,4204040
4175296,4196604,4200871
4172192,4199135,4206540
4171193,4199782,4208173
4171463,4199665,4207803
4173835,4197976,4203731
4175548,4196628,4200646
4172196,4198985,4206334
4171716,4198635,4206468
4172947,4196329,4202953
4174840,4195407,4200186
4172668,4198848,4205702
4172033,4199238,4206770
4170974,4199731,4208368
4171449,4199111,4207256
4173894,4197671,4203349
4172307,4198756,4205998
4171920,4199062,4206698
4171030,4199519,4208083
4171444,4198869,4207051
4173904,4197357,4203106
4173045,4197445,4204011
4171753,4199218,4207027
4170755,4199731,4208581
4171272,4199083,4207425
4173727,4197689,4203546
4172604,4198908,4205943
4171881,4199338,4207035
4170819,4199840,4208584
4171303,4199170,4207462
4173813,4197644,4203435
4172690,4198627,4205529
4172720,4197876,4204733
4172710,4196359,4203240
4172509,4196749,4203872
4173583,4197243,4203312
4172559,4198903,4205978
4171895,4199292,4207006
4170822,4199800,4208537
4171372,4199158,4207407
4173313,4198660,4204952
4172879,4198844,4205517
4172189,4199093,4206467
4171223,4199133,4207491
4171553,4198656,4206701
4173720,4197071,4202921
4172432,4198883,4205968
4171720,4199191,4206995
4170779,4199131,4207920
4171093,4198763,4207240
4173117,4198631,4205033
4172708,4198833,4205659
4171984,4199121,4206650
4171019,4199177,4207697
4171389,4198802,4206971
4173342,4198616,4204842
4173460,4197671,4203800
4173802,4195700,4201447
4172491,4196544,4203620
4171556,4198403,4206453
4173171,4198726,4205137
4172751,4198928,4205771
4172037,4199172,4206691
4171081,4199061,4207553
4171472,4198641,4206816
4173214,4198577,4204951
4172807,4198846,4205633
4172197,4199113,4206533
4171270,4199085,4207414
4175185,4196685,4201126
4173269,4198772,4205096
4172839,4198973,4205694
4172431,4198661,4205772
4171524,4198866,4206936
4174876,4198393,4202986
4173483,4198772,4204745
4173042,4198846,4205300
4172654,4198633,4205509
4171738,4198820,4206637
4174931,4197957,4202591
4174121,4197257,4202678
4174658,4195028,4199920
4173670,4195559,4201467
4171456,4198257,4206391
4174675,4198311,4203136
4173295,4198754,4204987
4172757,4198843,4205615
4172225,4198569,4205885
4171326,4198773,4207017
4174758,4198163,4202941
4173332,4198627,4204849
4172809,4198769,4205484
4172279,4198528,4205766
4175859,4196557,4200249
4174628,4198167,4203028
4173177,4198611,4204937
4172925,4198235,4204824
4172365,4198205,4205388
4175408,4198218,4202410
4174759,4198161,4202969
4173359,4198443,4204650
4173138,4197957,4204430
4172517,4197922,4205057
4175349,4198028,4202308
4175289,4196907,4201191
4174953,4194829,4199412
4174283,4195241,4200511
4172440,4197731,4204877
4175099,4198234,4202729
4174477,4198123,4203207
4173219,4198359,4204713
4172881,4197939,4204630
4172179,4197985,4205387
4175049,4198043,4202503
4174580,4198009,4202887
4173394,4198303,4204397
4173177,4197939,4204275
4172852,4197579,4204234
4174817,4198024,4202841
4174264,4198080,4203374
4173081,4198403,4204869
4172782,4197973,4204711
4173409,4198963,4205177
4175133,4198040,4202422
4174631,4197959,4202740
4173637,4197744,4203511
4173215,4197516,4203723
4173639,4198983,4204994
4175959,4196872,4200482
4176485,4194259,4197312
4174967,4195088,4199741
4173433,4197377,4203562
4173539,4199227,4205242
4175309,4198260,4202455
4174657,4198141,4202915
4173545,4197924,4203862
4173179,4197694,4204044
4173593,4198938,4204937
4175414,4197894,4202019
4174817,4197765,4202436
4173656,4197634,4203437
4173550,4197145,4203121
4173397,4199058,4205206
4175229,4198092,4202388
4174594,4197853,4202743
4173408,4197652,4203724
4173022,4197486,4203975
4173243,4199060,4205354
4175287,4198060,4202288
4174674,4197921,4202737
4173532,4197706,4203693
4171175,4199820,4208218
4174223,4197398,4202698
4176853,4193858,4196445
4176096,4194177,4197596
4173845,4196734,4202434
4170951,4200059,4208691
4173463,4198878,4205026
4175292,4197740,4202034
4174989,4197151,4201652
4173853,4197216,4202854
4171192,4200119,4208537
4173598,4199102,4205085
4175315,4197997,4202211
4175088,4197218,4201671
4174218,4196865,4202262
4170442,4200511,4209703
4173075,4199494,4206116
4175135,4198385,4202906
4175077,4197612,4202112
4174170,4197473,4202889
4171173,4200175,4208674
4173045,4199174,4205825
4174648,4198091,4203055
4175045,4197159,4201649
4175103,4196645,4201066
4171628,4198396,4206271
4173695,4195628,4201459
4174710,4195444,4200289
4174700,4196707,4201523
4172665,4198685,4205510
4171124,4199523,4207955
4171688,4199140,4207059
4173328,4197704,4203912
4174806,4196537,4201221
4172822,4198536,4205165
4171044,4199419,4207918
4171421,4199134,4207298
4173064,4197707,4204221
4174876,4196157,4200812
4172421,4198783,4205821
4170382,4199974,4209109
4170658,4199812,4208717
4172342,4198473,4205663
4174190,4197134,4202474
4172663,4198769,4205517
4170312,4199956,4209079
4170197,4199855,4209169
4171797,4198516,4206298
4173865,4197211,4202926
4173131,4197806,4204062
4171564,4197094,4204952
4170607,4197728,4206600
4170642,4198451,4207365
4176035,4197553,4200866
4172768,4198913,4205537
4169939,4200261,4209780
4169561,4199978,4209882
4171042,4198828,4207299
4176585,4197404,4200257
4173124,4198762,4205071
4169925,4200079,4209646
4169169,4199878,4210211
4170791,4198442,4207157
4176627,4197493,4200246
4172815,4199126,4205677
4169452,4200642,4210621
4168681,4200497,4211234
4170152,4199271,4208572
4176815,4197420,4200001
4172999,4199009,4205366
4169420,4200644,4210616
4168567,4200597,4211443
4170177,4199335,4208616
4177953,4196127,4197627
4175013,4195477,4199937
4170651,4198035,4206862
4168387,4200390,4211497
4169681,4199748,4209580
4177431,4197395,4199462
4173237,4199082,4205329
4169333,4200880,4211091
4168339,4200945,4212140
4178880,4197123,4197817
4177613,4197396,4199307
4173394,4198855,4204998
4169579,4200117,4210126
4168617,4200148,4211105
4178460,4196839,4197895
4177132,4197180,4199481
4172838,4198667,4205243
4169027,4199994,4210435
4167894,4200278,4211852
4178546,4196563,4197478
4177304,4196813,4198913
4173099,4198311,4204599
4169324,4199716,4209880
4168131,4200225,4211601
4179042,4195576,4195942
4178745,4193408,4194030
4174287,4195712,4200840
4169291,4199741,4209863
4167749,4200704,4212402
4178495,4196660,4197635
4177250,4196943,4199101
4173031,4198511,4204907
4169145,4199903,4210246
4167854,4200242,4211896
4178485,4196557,4197493
4177185,4196832,4199013
4172979,4198395,4204791
4169433,4199494,4209468
4176020,4197678,4201208
4178438,4196690,4197735
4177201,4196819,4199003
4173103,4197880,4204166
4169115,4199555,4209884
4176049,4197438,4200928
4178389,4196419,4197486
4177161,4196506,4198751
4173157,4197465,4203703
4169150,4199106,4209389
4176531,4196162,4199117
4179719,4192714,4192425
4177906,4193782,4195335
4173007,4197365,4203844
4168989,4199633,4210077
4176027,4197569,4201064
4178370,4196512,4197606
4177174,4196634,4198875
4173226,4197696,4203907
4169260,4199303,4209543
4176270,4197395,4200643
4178599,4196345,4197253
4177322,4196519,4198628
4173621,4197224,4202982
4171445,4196769,4204766
4175957,4197599,4201111
4178368,4196531,4197548
4177140,4196707,4198899
4173098,4197777,4204030
4172215,4198978,4206236
4176283,4197338,4200554
4178615,4196173,4197025
4177498,4195844,4197701
4173455,4197114,4202963
4173066,4197664,4204116
4177919,4193694,4195218
4179626,4193517,4193340
4177644,4195609,4197331
4173333,4197490,4203529
4172453,4199335,4206276
4176378,4197706,4200740
4178701,4196531,4197260
4177633,4196135,4197906
4173548,4197379,4203241
4172536,4199286,4206276
4176427,4197666,4200744
4178773,4196455,4197170
4177916,4195721,4197230
4175358,4194847,4198904
4172108,4199491,4206903
4176033,4197817,4201315
4178376,4196582,4197705
4177215,4196151,4198325
4173179,4197445,4203639
4172122,4199212,4206598
4176060,4197539,4200990
4178430,4196402,4197479
4177391,4196077,4198134
4169402,4199648,4209702
4174105,4195570,4200941
4177732,4194032,4195838
4179031,4194966,4195487
4177411,4195920,4197938
4168657,4201118,4212022
4172394,4199386,4206578
4176400,4197563,4200725
4178808,4195848,4196547
4177530,4195602,4197539
4168800,4200897,4211594
4172491,4199332,4206395
4176507,4197506,4200578
4179198,4195409,4195682
4179254,4193201,4193332
4168544,4201306,4212249
4172239,4199553,4206820
4176178,4197711,4201053
4178629,4196017,4196857
4177495,4195932,4197848
4168628,4201129,4211969
4172331,4199359,4206558
4176331,4197549,4200702
4178792,4195906,4196544
4167866,4200778,4212395
4170746,4197811,4206538
4173746,4196445,4202246
4176630,4196390,4199330
4178755,4195568,4196281
4166934,4201796,4214349
4168585,4200909,4211823
4172304,4199069,4206317
4176430,4196785,4199881
4178766,4195354,4196036
4167007,4201732,4214159
4168663,4200751,4211559
4172360,4198842,4205998
4176653,4196126,4198991
4180114,4192678,4191995
4166636,4202098,4214942
4168311,4201142,4212299
4172050,4199226,4206720
4176206,4196886,4200197
4178535,4195561,4196449
4166945,4201931,4214424
4168587,4201030,4211912
4172254,4199228,4206442
4176393,4196831,4199847
4178716,4195355,4196002
4169249,4198840,4209089
4170550,4198250,4207144
4172523,4198755,4205698
4176332,4197037,4200176
4168464,4201185,4212189
4167144,4201970,4214260
4168847,4201055,4211693
4172841,4198682,4205377
4176783,4196554,4199261
4168530,4201177,4212053
4167214,4201857,4214044
4168894,4200832,4211342
4173015,4198169,4204602
4178137,4193961,4195244
4168304,4201603,4212797
4166981,4202362,4214822
4168739,4201173,4211846
4172712,4198668,4205415
4176693,4196620,4199366
4168338,4201100,4212180
4167049,4201805,4214195
4168720,4200775,4211528
4172585,4198457,4205396
4176626,4196306,4199219
4170305,4197995,4207105
4168853,4199195,4209804
4168939,4200351,4210918
4172488,4198582,4205591
4176589,4196525,4199439
4168508,4201268,4212282
4167199,4201951,4214277
4168826,4200930,4211637
4172755,4198525,4205318
4172643,4198812,4205575
4168540,4200734,4211670
4167264,4201298,4213522
4169322,4199458,4209627
4174363,4195227,4200357
4172299,4198951,4206064
4168291,4200896,4212113
4167064,4201489,4213962
4168896,4199926,4210572
4172595,4197801,4204786
4172444,4198767,4205808
4168406,4200792,4211917
4167142,4201375,4213764
4168951,4199913,4210537
4172679,4197700,4204644
4174170,4195163,4200472
4169653,4198212,4208099
4167126,4201006,4213372
4168777,4199938,4210672
4172620,4197792,4204710
4172467,4198662,4205666
4168403,4200625,4211769
4167166,4201194,4213574
4169009,4199686,4210246
4172772,4197671,4204508
4172431,4198699,4205830
4168342,4200687,4212023
4167497,4200987,4213135
4171058,4197484,4206083
4176852,4197214,4199900
4172563,4198925,4205829
4168518,4200783,4211772
4167484,4200989,4213074
4169200,4199773,4210180
4177139,4197202,4199538
4172929,4198968,4205539
4168850,4200879,4211567
4167759,4200964,4212746
4169405,4199606,4209789
4178525,4193300,4194258
4173873,4195905,4201615
4168763,4200373,4211259
4167436,4201176,4213374
4169188,4199885,4210260
4177039,4197037,4199511
4172843,4198777,4205466
4168771,4200647,4211486
4167684,4200847,4212795
4169372,4199732,4210012
4177077,4196966,4199368
4172653,4198669,4205488
4168870,4200210,4210902
4169709,4198386,4208184
4178363,4196839,4197971
4177071,4197146,4199542
4172742,4198729,4205483
4168899,4200226,4210878
4167795,4200642,4212418
4178659,4196741,4197649
4177405,4197013,4199121
4173096,4198576,4204974
4169155,4199940,4210301
4167886,4200304,4211934
4180017,4193042,4192558
4178498,4194099,4195137
4173249,4198240,4204482
4169021,4200307,4210790
4167716,4200713,4212510
4178603,4196831,4197694
4177313,4197122,4199262
4173060,4198716,4205142
4169161,4200137,4210539
4167867,4200617,4212316
4178920,4196786,4197405
4177593,4197080,4199051
4173475,4198354,4204466
4171148,4197848,4206310
4170954,4196944,4205615
4178662,4196762,4197736
4177301,4197039,4199290
4172869,4198596,4205255
4168921,4200035,4210691
4176418,4197478,4200601
4178836,4196429,4197101
4177554,4196605,4198482
4173325,4197702,4203809
4169214,4199405,4209693
4178070,4193832,4195318
4180109,4193526,4193006
4177709,4196304,4198138
4173028,4198000,4204443
4168893,4199806,4210400
4176376,4197686,4200948
4178801,4196589,4197364
4177509,4196764,4198759
4173299,4197874,4204048
4169221,4199630,4209931
4176556,4197596,4200640
4178933,4196583,4197176
4177757,4196481,4198195
4175087,4195548,4199971
4172081,4196007,4203490
4176200,4197674,4201085
4178596,4196550,4197531
4177255,4196755,4198987
4173091,4197939,4204297
4169108,4199627,4210047
4176132,4197567,4201040
4178415,4196532,4197661
4177108,4196666,4199027
4172975,4197724,4204146
4174060,4195072,4200539
4177585,4194151,4196166
4178711,4195689,4196501
4177204,4196129,4198385
4172905,4197474,4203995
4172139,4199302,4206714
4176189,4197532,4200887
4178487,4196264,4197275
4177359,4195869,4197958
4173285,4197278,4203406
4172274,4199061,4206337
4176450,4197331,4200437
4179134,4195534,4195881
4179369,4192659,4192703
4175875,4193052,4196634
4172054,4199332,4206869
4176206,4197608,4200956
4178621,4196406,4197265
4177417,4196024,4198070
4173124,4197314,4203657
4172344,4199035,4206319
4176445,4197334,4200462
4178824,4196105,4196854
4177635,4195685,4197575
4173389,4197031,4203142
4173754,4196248,4202132
4176652,4196807,4199768
4178786,4196285,4197025
4177649,4195995,4197818
4168775,4200800,4211542
4172581,4199100,4206098
4176679,4197327,4200189
4179204,4195679,4195929
4177986,4195592,4197013
4168903,4200845,4211444
4172713,4199065,4205906
4177194,4196542,4198924
4180936,4192284,4190857
4179871,4191281,4190899
4168680,4201201,4212035
4172493,4199412,4206495
4176670,4197457,4200327
4179290,4195687,4195873
4177971,4195664,4197120
4168858,4200969,4211668
4172667,4199165,4206103
4176756,4197336,4200137
4179194,4195624,4195950
4177831,4195477,4197140
4170294,4198497,4207826
4172664,4198819,4205761
4176488,4197406,4200450
4178944,4195623,4196180
4167112,4201797,4214228
4168843,4200925,4211611
4172663,4199152,4206033
4176866,4196858,4199492
4179194,4195433,4195737
4167129,4201796,4214205
4168837,4200886,4211628
4172981,4198362,4204972
4178367,4193436,4194597
4180765,4191165,4189894
4166711,4202184,4215010
4168438,4201239,4212340
4172219,4199202,4206579
4176445,4196667,4199795
4178845,4195192,4195930
4166902,4201811,4214427
4168607,4200833,4211785
4172415,4198926,4206100
4176681,4196656,4199509
4179093,4195210,4195602
4168562,4199583,4210541
4168871,4200733,4211446
4172365,4199244,4206494
4176545,4196815,4199817
4178927,4195307,4195832
4166941,4201841,4214424
4168668,4200856,4211745
4172473,4198944,4206066
4176669,4196563,4199473
4168417,4200948,4212032
4167102,4201661,4214098
4169147,4200061,4210485
4174558,4195285,4200280
4179106,4192275,4192748
4168198,4201442,4212806
4166843,4202136,4214860
4168523,4201049,4212073
4172565,4198616,4205614
4176760,4196413,4199245
4168297,4201095,4212359
4169640,4200243,4210156
4169767,4198956,4208775
4171638,4197412,4205287
4173932,4198354,4203926
4177258,4198544,4200881
4179471,4197580,4197624
4166950,4204168,4216767
4168642,4203114,4213997
4172382,4200883,4208035
4176851,4198170,4200819
4179294,4196575,4196742
4166809,4203285,4215980
4168588,4202175,4213116
4172543,4199879,4206924
4177714,4195640,4197470
4167963,4202253,4213837
4166661,4203051,4215914
4168490,4201921,4212950
4172631,4199238,4206141
4176788,4196897,4199600
4168071,4201875,4213260
4166741,4202680,4215356
4168552,4201573,4212443
4172685,4198971,4205766
4176900,4196740,4199337
4170037,4199029,4208542
4169049,4199276,4209765
4169342,4200236,4210399
4172559,4198933,4205939
4176700,4196775,4199617
4168099,4201637,4213039
4166696,4202446,4215268
4168453,4201388,4212453
4172621,4198917,4205863
4176867,4196672,4199375
4167854,4201451,4213051
4166645,4202280,4215116
4168462,4200972,4212032
4173418,4196849,4202990
4171890,4199406,4206951
4167705,4201572,4213360
4166529,4202279,4215250
4168500,4200677,4211701
4172438,4198270,4205393
4172115,4199292,4206620
4167931,4201521,4213108
4166666,4202236,4215112
4168669,4200685,4211525
4172687,4198378,4205223
4173857,4196631,4202131
4170374,4197990,4207052
4167792,4200802,4212521
4168562,4200866,4211868
4172447,4198551,4205685
4172235,4199420,4206641
4168017,4201484,4213017
4166682,4202088,4214916
4168597,4200537,4211434
4172486,4198171,4205244
4172172,4199104,4206363
4167971,4201328,4212824
4166736,4201969,4214722
4169768,4198990,4208772
4175169,4194199,4198536
4171910,4199318,4206872
4167773,4201437,4213202
4166438,4202157,4215275
4168349,4200549,4211759
4176535,4197249,4200152
4172176,4199124,4206349
4168074,4201143,4212526
4167099,4201300,4213674
4168840,4199951,4210616
4177845,4194071,4195653
4174128,4194998,4200381
4168905,4199473,4210145
4166874,4201511,4214225
4168582,4200243,4211200
4176583,4197367,4200241
4172311,4199178,4206309
4168202,4201144,4212423
4167201,4201309,4213637
4168967,4200060,4210635
4176732,4197310,4200033
4172471,4199057,4206000
4168390,4200942,4212020
4168676,4199701,4210541
4172104,4196335,4203787
4176468,4197415,4200453
4172220,4199152,4206460
4168117,4201066,4212531
4167094,4201250,4213730
4168875,4199823,4210534
4176738,4197085,4199850
4172170,4198887,4206233
4168278,4200805,4212119
4167438,4200967,4213061
4179650,4193356,4193124
4178348,4192954,4194061
4173045,4197138,4203650
4168557,4200290,4211319
4167365,4200826,4213003
4178339,4196536,4197695
4176875,4196887,4199462
4172535,4198529,4205447
4168743,4199986,4210751
4167620,4200479,4212368
4178574,4196405,4197408
4177105,4196751,4199141
4172767,4198305,4205040
4170284,4198326,4207623
4170926,4196790,4205391
4178276,4196502,4197746
4176833,4196821,4199443
4172520,4198573,4205492
4168631,4200196,4211075
4167498,4200605,4212611
4178361,4196469,4197545
4176963,4196841,4199295
4172635,4198503,4205326
4168845,4199944,4210662
4177604,4194360,4196222
4180084,4192404,4191812
4177781,4195112,4196823
4172757,4198004,4204637
4168693,4199954,4210693
4176406,4197586,4200673
4178733,4196495,4197240
4177296,4196676,4198841
4173131,4197835,4204175
4169073,4199622,4210083
4176539,4197627,4200623
4178910,4196551,4197104
4177589,4196645,4198471
4174441,4196445,4201402
4172175,4196141,4203384
4176359,4197678,4200882
4178718,4196626,4197406
4177253,4196832,4198989
4172907,4197973,4204467
4168885,4199725,4210292
4176338,4197342,4200623
4178687,4196255,4197108
4177294,4196462,4198645
4173097,4197669,4204062
4169034,4199382,4209955
4177985,4193112,4194691
4179337,4194438,4194688
4177116,4196571,4198933
4172657,4198010,4204799
4172282,4199449,4206785
4176555,4197631,4200655
4178918,4196388,4196978
4177640,4196106,4197913
4173306,4197586,4203723
4172522,4199319,4206388
4176796,4197497,4200311
4179271,4196168,4196443
4178935,4194296,4194839
4176024,4193520,4196968
4172215,4199528,4206964
4176503,4197657,4200766
4178896,4196415,4197018
4177544,4196066,4197952
4172901,4197397,4203951
4172174,4199057,4206532
4176431,4197245,4200420
4178770,4196056,4196817
4177476,4195773,4197808
4173195,4197145,4203531
4174166,4195353,4200763
4177275,4195689,4197965
4178778,4196231,4196931
4177318,4195978,4198102
4172860,4197357,4203990
4172205,4199262,4206739
4176445,4197382,4200587
4178723,4196131,4196963
4177376,4195799,4197888
4168364,4200666,4211858
4172351,4198819,4206071
4176620,4196791,4199753
4179886,4193516,4193114
4179745,4191144,4190806
4168158,4201130,4212542
4172227,4199211,4206597
4176462,4197288,4200369
4178831,4195475,4196133
4177467,4195309,4197266
4168386,4200778,4211960
4172287,4198945,4206226
4176541,4196951,4199981
4179006,4195134,4195667
4177560,4195188,4197107
4170647,4197523,4206392
4173089,4197723,4204164
4176531,4197176,4200148
4178987,4195505,4195969
4177593,4195417,4197206
4168264,4200899,4212135
4172289,4199021,4206300
4176543,4197099,4200091
4178929,4195399,4195935
4177451,4195307,4197256
4168437,4200848,4211998
4172446,4198922,4206133
4177396,4195456,4197666
4180995,4191361,4189913
4166514,4202242,4215322
4168338,4201206,4212519
4172323,4199204,4206543
4176662,4196715,4199658
4179071,4195158,4195661
4166772,4201687,4214508
4168519,4200692,4211806
4172483,4198703,4205899
4176789,4196190,4199007
4179036,4194685,4195181
4169193,4198067,4208479
4169525,4199067,4209141
4172382,4198665,4205930
4176761,4196349,4199248
4179191,4194897,4195314
4166887,4201574,4214356
4168684,4200655,4211652
4172647,4198726,4205789
4176991,4196360,4199011
4179360,4194845,4195082
4167104,4201711,4214140
4168940,4200640,4211256
4173662,4197201,4203143
4179141,4192215,4192690
4168380,4201109,4212292
4167036,4201825,4214397
4168945,4200631,4211321
4173203,4198143,4204574
4177388,4196009,4198231
4168619,4200819,4211710
4167256,4201634,4213891
4169113,4200601,4211049
4173321,4198188,4204478
4177497,4196043,4198136
4170582,4197367,4206336
4168048,4200198,4211754
4168809,4200663,4211475
4172869,4198304,4205057
4177127,4196136,4198574
4168383,4200998,4212104
4167074,4201758,4214197
4168860,4200612,4211302
4173020,4198098,4204623
4177240,4195867,4198128
4168544,4200639,4211637
4167306,4201329,4213548
4169956,4198818,4208354
4175375,4193854,4197987
4179133,4192388,4192789
4168355,4200873,4212006
4167056,4201590,4214057
4168865,4200464,4211123
4173033,4197961,4204451
4172913,4198552,4205031
4168811,4200553,4211243
4167541,4201175,4213150
4169506,4199706,4209700
4173514,4197517,4203549
4174776,4194725,4199433
4169638,4199286,4209190
4167581,4201442,4213360
4169475,4199964,4209990
4173479,4197790,4203863
4173512,4198733,4204608
4169406,4200672,4210712
4168023,4201199,4212667
4169957,4199607,4209177
4173973,4197413,4203017
4173555,4198275,4204184
4169460,4200092,4210156
4169270,4199166,4209468
4172681,4195571,4202388
4175725,4194291,4198102
4173298,4198341,4204517
4169190,4200286,4210603
4167923,4200849,4212449
4169840,4199317,4209020
4173790,4197197,4202977
4173353,4198324,4204363
4169243,4200273,4210547
4168008,4200857,4212454
4169983,4199365,4209005
4179375,4192469,4192585
4174010,4196676,4202218
4169240,4200276,4210652
4168115,4200542,4211978
4169942,4199330,4208969
4177798,4196477,4198180
4173378,4198198,4204273
4169266,4200031,4210304
4168135,4200184,4211696
4169962,4198780,4208510
4177890,4196279,4197935
4173400,4198016,4204119
4170221,4198508,4207874
4170951,4196460,4205120
4172142,4196070,4203489
4177648,4196643,4198394
4173228,4198458,4204593
4169128,4200333,4210664
4168087,4200388,4211855
4169918,4199015,4208680
4177832,4196349,4197957
4173273,4198138,4204234
4169186,4199956,4210200
4168251,4200013,4211242
4170081,4198673,4208075
4178575,4194686,4195518
4173067,4198255,4204538
4168874,4200211,4210732
4167936,4200337,4211829
4179525,4196289,4196241
4178038,4196645,4197984
4173513,4198242,4204147
4169585,4199644,4209590
4168415,4200001,4211118
4179556,4196242,4196179
4178138,4196577,4197892
4174454,4196974,4202011
4172273,4196065,4203354
4170798,4197105,4205861
4179298,4196379,4196524
4177837,4196669,4198249
4173411,4198219,4204209
4169520,4199527,4209489
4168337,4199885,4211051
4179360,4195917,4196080
4177808,4196246,4197891
4173358,4197852,4203970
4169471,4199164,4209231
4168322,4199427,4210642
4180021,4194106,4193655
4177758,4196416,4198114
4173201,4198192,4204432
4169357,4199480,4209655
4168226,4199862,4211165
4179217,4196121,4196384
4177814,4196507,4198140
4173461,4198145,4204131
4169563,4199517,4209409
4177170,4197027,4199404
4179509,4195857,4195802
4178710,4194543,4195203
4175939,4193335,4196827
4171778,4195905,4203645
4176883,4197166,4199857
4179210,4196092,4196412
4177776,4196276,4197989
4173381,4197415,4203470
4169291,4199226,4209393
4176788,4197198,4199946
4179122,4196147,4196452
4177666,4196347,4198051
4173487,4197457,4203393
4169526,4199031,4209058
4177109,4195450,4197972
4178815,4196161,4196896
4177377,4196552,4198642
4173199,4197697,4203988
4169212,4199365,4209757
4176652,4197293,4200185
4178852,4196313,4196895
4177435,4196562,4198478
4173152,4197628,4203810
4172699,4198873,4205797
4176834,4197063,4199786
4179865,4194302,4193880
4179759,4191675,4191274
4175055,4194144,4198493
4172419,4199164,4206373
4176480,4197448,4200519
4178771,4196201,4196967
4177465,4195798,4197883
4173056,4197232,4203685
4172496,4199076,4206082
4176655,4197397,4200206
4178904,4196219,4196670
4177600,4195923,4197633
4173366,4197241,4203235
4173272,4197783,4204082
4176592,4197544,4200502
4178838,4196437,4197107
4177468,4196075,4198056
4173111,4197436,4203730
4172588,4198947,4205903
4176658,4197184,4200034
4178975,4196000,4196447
4177718,4195669,4197300
4173422,4197118,4203035
4172732,4198690,4205548
4177447,4195565,4197670
4180634,4192057,4190943
4179196,4192771,4193067
4168881,4200761,4211429
4172784,4198986,4205802
4176955,4197247,4199921
4179405,4195618,4195801
4178012,4195581,4197085
4169205,4200661,4211010
4173039,4198973,4205515
4177160,4197122,4199506
4179579,4195421,4195344
4178175,4195295,4196594
4170418,4198413,4207583
4172677,4198745,4205613
4176952,4197137,4199720
4179559,4195353,4195319
4178187,4195369,4196668
4169255,4200599,4210790
4173070,4198825,4205262
4177061,4196983,4199363
4179422,4195275,4195224
4178039,4195257,4196571
4169431,4200315,4210409
4173851,4197181,4202812
4178802,4192865,4193571
4180975,4191939,4190460
4178515,4194638,4195591
4169207,4200877,4211156
4172919,4199160,4205769
4176963,4197378,4199901
4179394,4195660,4195701
4167357,4201447,4213635
4169092,4200594,4211016
4172813,4198755,4205476
4176909,4196327,4198948
4179175,4194840,4195172
4168143,4200037,4211350
4168661,4200944,4211721
4172376,4199255,4206357
4176658,4196853,4199671
4179044,4195524,4195913
4167005,4202114,4214610
4168825,4201159,4211790
4172651,4199247,4206127
4176827,4196886,4199629
4179119,4195459,4195818
4167142,4201759,4214108
4169692,4199349,4209171
4174492,4195080,4200133
4178470,4193344,4194475
4179310,4194645,4194853
4166960,4201957,4214495
4168787,4200959,4211689
4172633,4199009,4205986
4176778,4196600,4199400
4179030,4195233,4195669
4167237,4201657,4213928
4168969,4200798,4211338
4172823,4198936,4205669
4177029,4196600,4199069
4169353,4199472,4209673
4167338,4201700,4213885
4169127,4200734,4211125
4173106,4198305,4204768
4177109,4196134,4198598
4168630,4200913,4211826
4167313,4201678,4213951
4169139,4200562,4211008
4173148,4198103,4204513
4177098,4196023,4198447
4168721,4200736,4211444
4168396,4200129,4211186
4171271,4197121,4205296
4174590,4195425,4200304
4177248,4195589,4197796
4168323,4201003,4212119
4167070,4201652,4213970
4168911,4200475,4211019
4172937,4198062,4204623
4176971,4196001,4198475
4168514,4200689,4211579
4167264,4201429,4213572
4169026,4200465,4210894
4173069,4198098,4204571
4173385,4197142,4203154
4168509,4200983,4211934
4167180,4201703,4214026
4169125,4200210,4210607
4173003,4197970,4204491
4172761,4198885,4205544
4168692,4200865,4211652
4167454,4201467,4213536
4169383,4199968,4210090
4173203,4197840,4204175
4172791,4198725,4205377
4169588,4199514,4209435
4169765,4198135,4207845
4171308,4197214,4205360
4173445,4197238,4203299
4172501,4198811,4205735
4168459,4200787,4211806
4167270,4201352,4213566
4169220,4199874,4210115
4173065,4197741,4204223
4172513,4198681,4205604
4168514,4200657,4211691
4167345,4201275,4213521
4169245,4199811,4210124
4173373,4197219,4203408
4172311,4198916,4206034
4168182,4201135,4212440
4166997,4201709,4214202
4168939,4200188,4210769
4176673,4197232,4199935
4172405,4199012,4206000
4168470,4200965,4211976
4167619,4201148,4213065
4169444,4199835,4209957
4177029,4197078,4199543
4173611,4197623,4203509
4171021,4197445,4205963
4169771,4198161,4207942
4169719,4199098,4208899
4176515,4197283,4200101
4172139,4199041,4206240
4168212,4200975,4212226
4167456,4201117,4213184
4169226,4199884,4210179
4176594,4197195,4200046
4172421,4198928,4205932
4168483,4200793,4211778
4167572,4200903,4212841
4169667,4199097,4208960
4176375,4197173,4200263
4172078,4199114,4206479
4168188,4200930,4212254
4167250,4200985,4213291
4168934,4199648,4210261
4176420,4197009,4200030
4172323,4198764,4205885
4168391,4200651,4211806
4167512,4200773,4212824
4178170,4196342,4197694
4177569,4195254,4197124
4174637,4194659,4199482
4170945,4196842,4205422
4168090,4199726,4211170
4178007,4196564,4198104
4176673,4196881,4199731
4172500,4198468,4205470
4168837,4199851,4210532
4167837,4200266,4211996
4178336,4196478,4197717
4176977,4196858,4199387
4172876,4198455,4205103
4169157,4199844,4210290
4168505,4199711,4210799
4178402,4196572,4197792
4176931,4197075,4199676
4172724,4198700,4205494
4169001,4200025,4210608
4167872,4200285,4211981
4178580,4196624,4197611
4177228,4196959,4199226
4172989,4198496,4205023
4169289,4199829,4210188
4168278,4200142,4211528
4179547,4194850,4194887
4178982,4192837,4193375
4174376,4195458,4200667
4169585,4199592,4209625
4176703,4197727,4200699
4179127,4196642,4197123
4177785,4196823,4198555
4173517,4197941,4203910
4169549,4199609,4209621
4176699,4197483,4200413
4178990,4196449,4196979
4177602,4196686,4198520
4173456,4197750,4203744
4169931,4198891,4208553
4176215,4197259,4200668
4178520,4196438,4197476
4177158,4196681,4198993
4173078,4197818,4204184
4169183,4199415,4209724
4176500,4197268,4200412
4178750,4196282,4197036
4177326,4196421,4198516
4173049,4197462,4203903
4169182,4199144,4209520
4177030,4195878,4198397
4180192,4192509,4191802
4178549,4193403,4194313
4173248,4197088,4203285
4172449,4199122,4206275
4176448,4197390,4200510
4178786,4196179,4196894
4177545,4195848,4197749
4173302,4197254,4203402
4172687,4198956,4205898
4176604,4197199,4200174
4178836,4195881,4196553
4177602,4195481,4197303
4173640,4196558,4202346
4172504,4198937,4206063
4176468,4197403,4200521
4178760,4196191,4196949
4177417,4195870,4197922
4173130,4197136,4203541
4172835,4199041,4205881
4176837,4197329,4200128
4179044,4196067,4196594
4177758,4195676,4197445
4173488,4196933,4202988
4173451,4197250,4203399
4178271,4193048,4194382
4180166,4192585,4191992
4177972,4195052,4196541
4173419,4197284,4203282
4172705,4198988,4205920
4176802,4197286,4200033
4179175,4196067,4196393
4177924,4195741,4197263
4169333,4200559,4210879
4173098,4198841,4205409
4177203,4196999,4199407
4179661,4195304,4195188
4178628,4194843,4195677
4169334,4200935,4211227
4172812,4199330,4206178
4176975,4197417,4200067
4179461,4195667,4195768
4178043,4195561,4197006
4169210,4200901,4211310
4173046,4199150,4205742
4177160,4197357,4199754
4179593,4195696,4195584
4178175,4195612,4196909
4170107,4199436,4208932
4174831,4195416,4200181
4178578,4194222,4195281
4179825,4195291,4195048
4177993,4196067,4197572
4169075,4201207,4211684
4172748,4199510,4206366
4176782,4197680,4200523
4179257,4195979,4196318
4177915,4195817,4197443
4169039,4201174,4211716
4172755,4199369,4206231
4176814,4197436,4200241
4179575,4195182,4195176
4167161,4202324,4214725
4168895,4201454,4212142
4172637,4199477,4206490
4176862,4197086,4199876
4179173,4195579,4196002
4167118,4202110,4214530
4168923,4201142,4211795
4172695,4199168,4206088
4176836,4196806,4199531
4179183,4195391,4195749
4168109,4200506,4211937
4170931,4197571,4206175
4173866,4196301,4201983
4176828,4196183,4198951
4178874,4195380,4196078
4166862,4201815,4214508
4168590,4200859,4211846
4172398,4198978,4206215
4176555,4196584,4199618
4178766,4195049,4195817
4166837,4201513,4214182
4168548,4200572,4211554
4172306,4198634,4205924
4176685,4195722,4198603
4180132,4191952,4191320
4166559,4202109,4215107
4168313,4201067,4212358
4172117,4199118,4206644
4176307,4196732,4200051
4168169,4201084,4212402
4166956,4201909,4214478
4168766,4200817,4211599
4172801,4198383,4205123
4176832,4196267,4198931
4169280,4199892,4210028
4169363,4198631,4208652
4170477,4198230,4207200
4172934,4197977,4204569
4176669,4196463,4199291
4168211,4201172,4212457
4166981,4201890,4214376
4168806,4200835,4211558
4172828,4198502,4205259
4176842,4196338,4199081
4168410,4201080,4212164
4167128,4201808,4214227
4168915,4200830,4211477
4173279,4198001,4204332
4178528,4193477,4194499
4168043,4201509,4213014
4166810,4202222,4214955
4168600,4201154,4212092
4172605,4198652,4205642
4172399,4199177,4206289
4168305,4201275,4212472
4167160,4201869,4214206
4169143,4200271,4210669
4172973,4198155,4204798
4173268,4198118,4204281
4170597,4198036,4206885
4169203,4198951,4209205
4169455,4199603,4209617
4172729,4198174,4204947
4172392,4199205,4206273
4168243,4201206,4212488
4167060,4201699,4214233
4169001,4200178,4210786
4172795,4197950,4204708
4172494,4198888,4205908
4168399,4200889,4212009
4167210,4201462,4213783
4169512,4199452,4209477
4174739,4194907,4199644
4172188,4199349,4206605
4168116,4201410,4212776
4166931,4202016,4214571
4168913,4200434,4211026
4172836,4198164,4204866
4172169,4198925,4206199
4168188,4200978,4212314
4167141,4201568,4213972
4169127,4199914,4210333
4177607,4195461,4197307
4174403,4195061,4200118
4170249,4197747,4207053
4167853,4200358,4212024
4169121,4200036,4210437
4176892,4197285,4199831
4172549,4199055,4205951
4168542,4200985,4211944
4167601,4201097,4212964
4169460,4199659,4209685
4177164,4197041,4199337
4172800,4198864,4205519
4168785,4200753,4211484
4168230,4200391,4211684
4171742,4196916,4204659
4177105,4197494,4199895
4172653,4199294,4206154
4168633,4201138,4212128
4167632,4201192,4213174
4169428,4199873,4210068
4177090,4197161,4199563
4172604,4198930,4205756
4168510,4200774,4211779
4167536,4200885,4212882
4169331,4199461,4209686
4178531,4193229,4194184
4173769,4196025,4201794
4168689,4200534,4211423
4167430,4201372,4213534
4178674,4196822,4197723
4177221,4197227,4199448
4172831,4198925,4205541
4168948,4200388,4210950
4167790,4200645,4212346
4178624,4196704,4197563
4177145,4197082,4199364
4172721,4198713,4205432
4169372,4199677,4209809
4170179,4197988,4207330
4178352,4196815,4197996
4176870,4197121,4199698
4172573,4198698,4205563
4168786,4200026,4210722
4167612,4200415,4212281
4178341,4196461,4197604
4176896,4196796,4199359
4172648,4198463,4205261
4168872,4199887,4210519
4167764,4200195,4211977
4179941,4192600,4192184
4178145,4193638,4195021
4172893,4197995,4204643
4168755,4200341,4211136
4167636,4200808,4212714
4178404,4196959,4198018
4176961,4197283,4199763
4172496,4198916,4205861
4168774,4200346,4211016
4176303,4197629,4200881
4178508,4196531,4197518
4177087,4196743,4199100
4173385,4197484,4203534
4171377,4197041,4205172
4175914,4197619,4201264
4178208,4196450,4197787
4176785,4196643,4199332
4172545,4197789,4204704
4168833,4199459,4210212
4176134,4197150,4200590
4178340,4196166,4197312
4176997,4196452,4198911
4172985,4197572,4204075
4169100,4199238,4209642
4177995,4193285,4194900
4180052,4192861,4192462
4177500,4195834,4197906
4172865,4197861,4204503
4168893,4199515,4210186
4176107,4197485,4200943
4178381,4196395,4197545
4176954,4196605,4199130
4172727,4197776,4204491
4172388,4199155,4206380
4176369,4197480,4200641
4178592,4196374,4197242
4177686,4195695,4197459
4175311,4194834,4198964
4171935,4199452,4207084
4176018,4197713,4201253
4178231,4196501,4197764
4176977,4196133,4198606
4172878,4197517,4204159
4172256,4199336,4206647
4176261,4197564,4200872
4178472,4196340,4197421
4177258,4196070,4198247
4173165,4197508,4203744
4174084,4195491,4200882
4177822,4194037,4195752
4178878,4195623,4196294
4177094,4196289,4198640
4172743,4197696,4204369
4172220,4199356,4206681
4176209,4197622,4200900
4178434,4196372,4197407
4177097,4196013,4198368
4172845,4197477,4204100
4172318,4199157,4206433
4176347,4197435,4200655
4178814,4195799,4196472
4178946,4193155,4193600
4168394,4201292,4212427
4172246,4199525,4206821
4176331,4197689,4200818
4178713,4195999,4196659
4177320,4195890,4197931
4168632,4201114,4211898
4172451,4199300,4206334
4176472,4197432,4200460
4178810,4195722,4196381
4177431,4195594,4197557
4170814,4197656,4206215
4173700,4196497,4202210
4176625,4196911,4199764
4178807,4195919,4196548
4177378,4195941,4197947
4168703,4201298,4212064
4172476,4199561,4206579
4176487,4197669,4200704
4178877,4195922,4196556
4177516,4195915,4197834
4168596,4201019,4211888
4172397,4199248,4206381
4176700,4196890,4199712
4180324,4192792,4191876
4179478,4191518,4191393
4168261,4201469,4212671
4172059,4199587,4207035
4175997,4197585,4201087
4178372,4195828,4196879
4166751,4201913,4214637
4168460,4200894,4211945
4172203,4198964,4206299
4176342,4196605,4199743
4178577,4195115,4195994
4169042,4198540,4208954
4170162,4198169,4207457
4172349,4198387,4205547
4176095,4196656,4200050
4178335,4195256,4196387
4166714,4201795,4214587
4168484,4200817,4211832
4172276,4198975,4206209
4176355,4196670,4199714
4178588,4195220,4195968
4166946,4201686,4214134
4168706,4200760,4211459
4172741,4198475,4205172
4178085,4193774,4195046
4180683,4190940,4189649
4166761,4202140,4214879
4168620,4201182,4212080
4172405,4199201,4206338
4176497,4196747,4199760
4178708,4195407,4196167
4166922,4201853,4214390
4168662,4200874,4211656
4172424,4198990,4206018
4176517,4196713,4199617
4170376,4197653,4206673
4169199,4198524,4208713
4169456,4199582,4209530
4172652,4198245,4205016
4176573,4196109,4198971
4167989,4200969,4212411
4167013,4201685,4214087
4168762,4200583,4211226
4172733,4198168,4204897
4176754,4196101,4198805
4168285,4200817,4211924
4167134,4201560,4213851
4169192,4200162,4210392
4174528,4195426,4200337
4179035,4191820,4192235
4168013,4201382,4212833
4166885,4202020,4214555
4168736,4200876,4211571
4172755,4198421,4205149
4176718,4196298,4199009
4168250,4201124,4212362
4167024,4201882,4214344
4168769,4200798,4211545
4172732,4198341,4205143
4174132,4195359,4200600
4170022,4198086,4207486
4167464,4201166,4213174
4168940,4200519,4211081
4172848,4198228,4204932
4172242,4199100,4206318
4168298,4201140,4212366
4167136,4201712,4214058
4169067,4200163,4210565
4172884,4198023,4204663
4172352,4199073,4206145
4168378,4201049,4212175
4167622,4201208,4213077
4171302,4197484,4205652
4175692,4193856,4197652
4171663,4199398,4207119
4167746,4201380,4213130
4166781,4201833,4214581
4168786,4200171,4210923
4172586,4198003,4204940
4171848,4199018,4206588
4168029,4201059,4212550
4167068,4201584,4214080
4168997,4200009,4210563
4172756,4197929,4204721
4173419,4195895,4202024
4168243,4200512,4211838
4166868,4201765,4214406
4168887,4200227,4210792
4176506,4197181,4200076
4172323,4198970,4206091
4168362,4200931,4212032
4167524,4201138,4212979
4169417,4199870,4209842
4176785,4197294,4199855
4172508,4199008,4205873
4169042,4200384,4210771
4170105,4198268,4207606
4172642,4195898,4202726
4176674,4197500,4200228
4172367,4199239,4206263
4168420,4201031,4212084
4167599,4201136,4213014
4169436,4199827,4209869
4176939,4197266,4199703
4172706,4199018,4205695
4168754,4200805,4211523
4167832,4200890,4212514
4169665,4199682,4209466
4178283,4193861,4195042
4172939,4198379,4204898
4168734,4201101,4211871
4167762,4201121,4212860
4169472,4199697,4209716
4176961,4197210,4199672
4172594,4198906,4205713
4168559,4200686,4211575
4167651,4200708,4212539
4178355,4196406,4197525
4176793,4196773,4199317
4172869,4197957,4204444
4171098,4197194,4205589
4171055,4196294,4204796
4178054,4196611,4198102
4176535,4196979,4199891
4172191,4198578,4205800
4168623,4199908,4210755
4167725,4200261,4212072
4177944,4196501,4198012
4176498,4196836,4199790
4172364,4198452,4205552
4168772,4199841,4210575
4167835,4200243,4211932
4179501,4193246,4193278
4176871,4196384,4198977
4172324,4198995,4206063
4168672,4200412,4211121
4167651,4200726,4212432
4178011,4196741,4198170
4176562,4197097,4199904
4172436,4198744,4205739
4168817,4200094,4210804
4167901,4200363,4212018
4178202,4196602,4197943
4176891,4196578,4199135
4173955,4196092,4201591
4171652,4196169,4204037
4175983,4197790,4201339
4178254,4196819,4198009
4176799,4196992,4199589
4172524,4198049,4204926
4168888,4199664,4210244
4176246,4197514,4200714
4178482,4196540,4197464
4177121,4196745,4199026
4173000,4197806,4204199
4169236,4199423,4209603
4177838,4193919,4195635
4178828,4195689,4196377
4176952,4196913,4199415
4172798,4198016,4204663
4168897,4199572,4210144
4176078,4197453,4200882
4178290,4196452,4197589
4176848,4196569,4199141
4172636,4197654,4204473
4168904,4199383,4210014
4176175,4197279,4200638
4178571,4195871,4196770
4178266,4193772,4194941
4175242,4193632,4197890
4170372,4197571,4206734
4175968,4197425,4201020
4178182,4196445,4197749
4176683,4196724,4199453
4172540,4197924,4204766
4172290,4199025,4206310
4176226,4197417,4200727
4178415,4196271,4197305
4177193,4195896,4198084
4173027,4197291,4203661
4173708,4196088,4201853
4176344,4196829,4199939
4178226,4196477,4197625
4177004,4196219,4198571
4172947,4197602,4203994
4172415,4199152,4206272
4176335,4197583,4200685
4178570,4196463,4197256
4177232,4196144,4198240
4172877,4197530,4203982
4172540,4199202,4206171
4176656,4197082,4199896
4179746,4193626,4193235
4179216,4192027,4192150
4174147,4195791,4201044
4172226,4199358,4206642
4176191,4197656,4200915
4178373,4196516,4197521
4177034,4196227,4198514
4168731,4200893,4211667
4172435,4199125,4206207
4176324,4197308,4200469
4178479,4195651,4196532
4177176,4195599,4197682
4170588,4197830,4206634
4172572,4198251,4205160
4175950,4197193,4200691
4178135,4195503,4196750
4176724,4195365,4198008
4168610,4200685,4211543
4172360,4199006,4206183
4176234,4197195,4200415
4178485,4195521,4196434
4177114,4195417,4197647
4168732,4200713,4211402
4172671,4198573,4205368
4177631,4194489,4196287
4180512,4191435,4190351
4178134,4193590,4194844
4168583,4201054,4211947
4172325,4199305,4206480
4176219,4197493,4200719
4178454,4195835,4196788
4177141,4195769,4198020
4168730,4201087,4211819
4172492,4199298,4206250
4176443,4197483,4200445
4178672,4195804,4196498
4169267,4198857,4209047
4169379,4200194,4210287
4172517,4199198,4206196
4176549,4196850,4199830
4178685,4195353,4196133
4167066,4201854,4214166
4168811,4200911,4211513
4172581,4199067,4205945
4176681,4196709,4199449
4178694,4195341,4196005
4167197,4201848,4214000
4169152,4200522,4210696
4174001,4196339,4201634
4178820,4192445,4192983
4179909,4193201,4192678
4166947,4202177,4214609
4168671,4201175,4211937
4172387,4199254,4206330
4176498,4196858,4199770
4178595,4195401,4196161
4167003,4201831,4214219
4168719,4200796,4211532
4172437,4198822,4205909
4176474,4196463,4199434
4178576,4194953,4195728
4167272,4201034,4213191
4168329,4200914,4212031
4172031,4198980,4206440
4176086,4196637,4199999
4167867,4201159,4212739
4166935,4201762,4214279
4168707,4200622,4211369
4172487,4198261,4205259
4176433,4196260,4199283
4168148,4200991,4212189
4167422,4201211,4213150
4170615,4197988,4206787
4175252,4194124,4198354
4177817,4194060,4195742
4167940,4201260,4212768
4166919,4201832,4214388
4168618,4200759,4211602
4172566,4198298,4205257
4176663,4196076,4198955
4168095,4200942,4212372
4167136,4201621,4213993
4168865,4200496,4211157
4172572,4198031,4205001
4176539,4195861,4198865
4168282,4200408,4211643
4166844,4201859,4214535
4168589,4200763,4211680
4172536,4198350,4205350
4176614,4196263,4199165
4167993,4201308,4212731
4167144,4201940,4214242
4168904,4200779,4211386
4172584,4198360,4205346
4172338,4198971,4206013
4168725,4200518,4211223
4169148,4199063,4209331
4172254,4195969,4203146
4174797,4195144,4199773
4171914,4199151,4206613
4168081,4201113,4212462
4167074,4201695,4214030
4169024,4200233,4210614
4172762,4198029,4204750
4172224,4199030,4206230
4168330,4201065,4212160
4167314,4201560,4213650
4169272,4199932,4210075
4172953,4197724,4204244
4172262,4198313,4205393
4167885,4201331,4212781
4166838,4201829,4214319
4168822,4200047,4210610
4172574,4197827,4204728
4171976,4199017,4206398
4168106,4201037,4212302
4167117,4201570,4213850
4169052,4200020,4210374
4176323,4196980,4200026
4172448,4198385,4205292
4170079,4198283,4207609
4170512,4196922,4205831
4170867,4197402,4205991
4175898,4197065,4200539
4171653,4198877,4206568
4168071,4200720,4212067
4167513,4200787,4212690
4169323,4199449,4209562
4175970,4196867,4200240
4171814,4198663,4206211
4168189,4200514,4211758
4167616,4200498,4212345
4169463,4199189,4209164
4176335,4196212,4199262
4171777,4199106,4206682
4168059,4200930,4212353
4167416,4200996,4213105
4169228,4199728,4209999
4176182,4197292,4200464
4172069,4199139,4206396
4168260,4201028,4212118
4167619,4201051,4212832
4169451,4199555,4209532
4176535,4196790,4199603
4173807,4196546,4202028
4170867,4197274,4205772
4168946,4199087,4209549
4177860,4196814,4198327
4176423,4197162,4200111
4172315,4198810,4205832
4168731,4200186,4210789
4167915,4200472,4211924
4178089,4196660,4197913
4176543,4197002,4199780
4172229,4198619,4205681
4168783,4199956,4210493
4168123,4200159,4211385
4178236,4195922,4197145
4176320,4197276,4200354
4172009,4198931,4206360
4168541,4200374,4211363
4167811,4200712,4212413
4177861,4196700,4198232
4176393,4197071,4200045
4172220,4198693,4205827
4168752,4199989,4210617
4167932,4200248,4211693
4177989,4196140,4197537
4177662,4194221,4195875
4174214,4194745,4199929
4169527,4198518,4208387
4167615,4200642,4212372
4177594,4196797,4198550
4176087,4197206,4200404
4171996,4198856,4206198
4168604,4200233,4211072
4175808,4197564,4201234
4177725,4196632,4198299
4176303,4196842,4199854
4172457,4197931,4204839
4168906,4199564,4210084
4175852,4197004,4200583
4177297,4196927,4199020
4175867,4197209,4200688
4172090,4198389,4205643
4168642,4200100,4210883
4175607,4197829,4201735
4177470,4196767,4198796
4175927,4197009,4200538
4172088,4198192,4205528
4168713,4199806,4210532
4175816,4197241,4200878
4178777,4193984,4194564
4177947,4192774,4194182
4173000,4196102,4202543
4168422,4199908,4210936
4175351,4197752,4201899
4177199,4196716,4198956
4175879,4196988,4200519
4172137,4198172,4205417
4168552,4199870,4210738
4175389,4197575,4201642
4177220,4196530,4198772
4175705,4196725,4200448
4172005,4197869,4205267
4172129,4198559,4206042
4175353,4197677,4201893
4177257,4196544,4198714
4175996,4196256,4199600
4172065,4197769,4205067
4171733,4199265,4207040
4175639,4197571,4201408
4177471,4196442,4198373
4176066,4196205,4199479
4172193,4197586,4204771
4171757,4198683,4206423
4176674,4194702,4197483
4179334,4192066,4192149
4177169,4193950,4196171
4172008,4197436,4204835
4171276,4199094,4207336
4175230,4197288,4201581
4177094,4196115,4198456
4175741,4195854,4199453
4171941,4197350,4204752
4171483,4199080,4207077
4175409,4197351,4201392
4177308,4196214,4198332
4175986,4195929,4199307
4168550,4200120,4211036
4171377,4199242,4207310
4175321,4197414,4201471
4177287,4195762,4197858
4175854,4195726,4199253
4168180,4201105,4212312
4171825,4199365,4207010
4175833,4197494,4201110
4177830,4195830,4197383
4176385,4195792,4198720
4168703,4200660,4211328
4173503,4196493,4202363
4177963,4193149,4194602
4179257,4193683,4193855
4176613,4195932,4198607
4168276,4201490,4212630
4172035,4199623,4207036
4175953,4197686,4201134
4178029,4195995,4197282
4176509,4196055,4198774
4168372,4201221,4212260
4172059,4199443,4206788
4175970,4197579,4200964
4178034,4195788,4197082
4177519,4194398,4196136
4167839,4201590,4213015
4171593,4199693,4207425
4175552,4197742,4201485
4177547,4196019,4197723
4166387,4202384,4215294
4168029,4201376,4212638
4171608,4199413,4207172
4175845,4196994,4200522
4177732,4195647,4197215
4166668,4201987,4214676
4169786,4198888,4208469
4173881,4195519,4201035
4176637,4194993,4197813
4177503,4195641,4197502
4166041,4202736,4216111
4167687,4201749,4213492
4171203,4199725,4207987
4175347,4197193,4201277
4177298,4195803,4197840
4166065,4202580,4215964
4167784,4201490,4213192
4171252,4199526,4207792
4175359,4197016,4201132
4178239,4194411,4195593
4165587,4203033,4216817
4167265,4201976,4214091
4170714,4199870,4208632
4174658,4197403,4202218
4176703,4196007,4198702
4165755,4202894,4216572
4167386,4201877,4213930
4170719,4199838,4208596
4174576,4197359,4202294
4167037,4201756,4214128
4167582,4200638,4212475
4170138,4198235,4207485
4172319,4197374,4204489
4174439,4196970,4201988
4166308,4202483,4215586
4165473,4203202,4217124
4167114,4202050,4214381
4170629,4199475,4208359
4174161,4197270,4202628
4166200,4202720,4215925
4165377,4203401,4217423
4167028,4202292,4214693
4170544,4199794,4208703
4174932,4196459,4200959
4165239,4203579,4217760
4164398,4204353,4219340
4166087,4203079,4216365
4169579,4200379,4210171
4173046,4198129,4204456
4165125,4203936,4218188
4164288,4204624,4219733
4165920,4203478,4216955
4169383,4200829,4210836
4172877,4198423,4204956
4166753,4201988,4214694
4166995,4201271,4213628
4167388,4201618,4213441
4169334,4200864,4210807
4168448,4201635,4212498
4165301,4203811,4217914
4164642,4204375,4219115
4166623,4202743,4215474
4170046,4200201,4209548
4169107,4201261,4211462
4165991,4203420,4216808
4165428,4203821,4217767
4167490,4202056,4213891
4171793,4198416,4206009
4169215,4201248,4211363
4166159,4203357,4216586
4165655,4203637,4217355
4167781,4201771,4213366
4171066,4199435,4207758
4170166,4200418,4209655
4167185,4202317,4214551
4166717,4202625,4215313
4168714,4200924,4211581
4171875,4198743,4206222
4172605,4197487,4204287
4170514,4198163,4207100
4168732,4200133,4210672
4169231,4200420,4210495
4174495,4198008,4202822
4171244,4199673,4207711
4168467,4201219,4212112
4168345,4200986,4212037
4170058,4199713,4209040
4174715,4197701,4202338
4171431,4199306,4207181
4168603,4200790,4211577
4168486,4200477,4211406
4171286,4197856,4206050
4174061,4197981,4203324
4170930,4199529,4208035
4168280,4200934,4212215
4168216,4200689,4212019
4169906,4199376,4208963
4174310,4197833,4202954
4171158,4199445,4207718
4168535,4200836,4211818
4168475,4200505,4211535
4170175,4199216,4208548
4176071,4194949,4198324
4173693,4195353,4201204
4169596,4198960,4208922
4168324,4200392,4211586
4169927,4199216,4208786
4174048,4197776,4203138
4171102,4199261,4207551
4168653,4200550,4211363
4168687,4200272,4211054
4175375,4197110,4201222
4174321,4197438,4202556
4171401,4198914,4206935
4169321,4199744,4209917
4170248,4198346,4207674
4174971,4197510,4202002
4173994,4197772,4203243
4171104,4199015,4207374
4169002,4199770,4210272
4169000,4199585,4210084
4175251,4196953,4201216
4181398,4194947,4192915
4180138,4195197,4194381
4177358,4195445,4197403
4176033,4194562,4197890
4176214,4195069,4198245
4176397,4197136,4200147
4179123,4197473,4197679
4175985,4198538,4201927
4173792,4199283,4204949
4174295,4198417,4203597
4180124,4196402,4195756
4178992,4196687,4197168
4175903,4197657,4201211
4173882,4197804,4203402
4174332,4197184,4202402
4180515,4193801,4192837
4178594,4196439,4197277
4175384,4197696,4201718
4173388,4197792,4203862
4173816,4197066,4202733
4179328,4195962,4196145
4178277,4196275,4197452
4175229,4197217,4201414
4173293,4197378,4203572
4173860,4196728,4202445
4179309,4195607,4195841
4178709,4194642,4195445
4176675,4193089,4195938
4174865,4193671,4198413
4174196,4195772,4201233
4178718,4195803,4196537
4177595,4196074,4197948
4174620,4197076,4202000
4172841,4197246,4203985
4173483,4196559,4202699
4178279,4195631,4196961
4177204,4195995,4198311
4174415,4196971,4202038
4172878,4197059,4203718
4177934,4194154,4195818
4178384,4195859,4197020
4177312,4196367,4198532
4174737,4196811,4201499
4173222,4197165,4203419
4177740,4196619,4198423
4178887,4196099,4196746
4177924,4196253,4197799
4175360,4196651,4200731
4173879,4196917,4202524
4177982,4196284,4197788
4179349,4194611,4194700
4179266,4192204,4192389
4176979,4192791,4195295
4174540,4195739,4200725
4177699,4196424,4198200
4178601,4196064,4196908
4177697,4196213,4197971
4175457,4196482,4200454
4174424,4196530,4201585
4177591,4196253,4198119
4178451,4195865,4196872
4178128,4195837,4197124
4177084,4195679,4197964
4177790,4194926,4196562
4181124,4194844,4193180
4181614,4194796,4192668
4181427,4194702,4192736
4180993,4194352,4192845
4182730,4193687,4190458
4180817,4194205,4192909
4180567,4194158,4193076
4180335,4193721,4192831
4179667,4193770,4193527
4180625,4194356,4193180
4178888,4193901,4194428
4179567,4191301,4191175
4179674,4191078,4190886
4178112,4193781,4195127
4178942,4195481,4195912
4177017,4196015,4198428
4176904,4195967,4198518
4176881,4195452,4198034
4176570,4195325,4198229
4178143,4195683,4197024
4176120,4196308,4199691
4175957,4196308,4199873
4176006,4195811,4199314
4176033,4195318,4198786
4177175,4196024,4198321
4175020,4196932,4201391
4174866,4196931,4201580
4174939,4196472,4201073
4174887,4196279,4200979
4176591,4196483,4199442
4174517,4197062,4202117
4174358,4196973,4202212
4174486,4196402,4201539
4178594,4196053,4197036
4176607,4195479,4198342
4175571,4193358,4197328
4175711,4192936,4196845
4174554,4195469,4200514
4177935,4196563,4198148
4175538,4197064,4201035
4173450,4197520,4203579
4173485,4196967,4203008
4173634,4196665,4202590
4177798,4196575,4198383
4175401,4196978,4201153
4173368,4197376,4203590
4173427,4196803,4202954
4173873,4196244,4201982
4177450,4196790,4198936
4174958,4197532,4202087
4172931,4197979,4204588
4173028,4197464,4204011
4173247,4197211,4203550
4177434,4197025,4199167
4175054,4197514,4202022
4172986,4197961,4204593
4173086,4197331,4203888
4176725,4197368,4200262
4177818,4195693,4197395
4176744,4193566,4196350
4174923,4193947,4198561
4173411,4196278,4202400
4176323,4197696,4200953
4176935,4197226,4199832
4174607,4197635,4202498
4172976,4197564,4204063
4173074,4197159,4203650
4176252,4197748,4201077
4176807,4197287,4199994
4174573,4197689,4202617
4172956,4197647,4204208
4173229,4196936,4203279
4176051,4197727,4201226
4176442,4197506,4200542
4174195,4197886,4203124
4172722,4197891,4204643
4172887,4197540,4204172
4176092,4197771,4201296
4176638,4197282,4200167
4174360,4197695,4202811
4172857,4197722,4204377
4172952,4197413,4203991
4176308,4196596,4199808
4177761,4193554,4195304
4175469,4194212,4198324
4172934,4197001,4203647
4172902,4199256,4205922
4175468,4198108,4202122
4176026,4197506,4200888
4173893,4197408,4202958
4171972,4197582,4205133
4172926,4199465,4206165
4175766,4198408,4202247
4176345,4197730,4200947
4174409,4197551,4202676
4173133,4197429,4203916
4172614,4199480,4206444
4175105,4198635,4203171
4175717,4197942,4201753
4173899,4197670,4203239
4172577,4197664,4204621
4172333,4199780,4207065
4174742,4198707,4203542
4175591,4198004,4201900
4174217,4197732,4202980
4173014,4197792,4204336
4172611,4198581,4205562
4175713,4194866,4198736
4176431,4194239,4197421
4173854,4196760,4202438
4171958,4197918,4205480
4170862,4200139,4208876
4173254,4199116,4205410
4174066,4198410,4203827
4172906,4198074,4204639
4167030,4202193,4214698
4167056,4202453,4214908
4168888,4201257,4211887
4170219,4199862,4209155
4170003,4199378,4208865
4165834,4203603,4217311
4164901,4204593,4219216
4165658,4203981,4217819
4167231,4202433,4214707
4168738,4201021,4211777
4167666,4202433,4214321
4166204,4203573,4216874
4166711,4203157,4215989
4168445,4201491,4212601
4170247,4199951,4209237
4169691,4200158,4210052
4169534,4199303,4209339
4169362,4199569,4209722
4169331,4200229,4210425
4170847,4199401,4208108
4169366,4201000,4211139
4167458,4202228,4214283
4167604,4201986,4213903
4169332,4200399,4210563
4171563,4198746,4206696
4170005,4200344,4209802
4167838,4201688,4213357
4167918,4201654,4213252
4170057,4199735,4209215
4173583,4198487,4204396
4170160,4200325,4209655
4167881,4201553,4213235
4168163,4200953,4212334
4169799,4199530,4209273
4173468,4198102,4204082
4170501,4199582,4208562
4168153,4200757,4212172
4168371,4200238,4211418
4170080,4198943,4208389
4174597,4196567,4201419
4173005,4195965,4202471
4170386,4197719,4206853
4168767,4199587,4210380
4169862,4199134,4208885
4174040,4197820,4203333
4170736,4199411,4208207
4168299,4200731,4211997
4168411,4200249,4211429
4170139,4198892,4208334
4174890,4197609,4202249
4171388,4199226,4207329
4168535,4200625,4211594
4168808,4199965,4210695
4176251,4196996,4200304
4174830,4197808,4202472
4171397,4199264,4207378
4168708,4200153,4210964
4168501,4199930,4210969
4176526,4197016,4200027
4175196,4197458,4201764
4171664,4198951,4206781
4168959,4199843,4210439
4168797,4199695,4210452
4177394,4195894,4198008
4177070,4193857,4196272
4173470,4195670,4201742
4169424,4199430,4209555
4168582,4200407,4211394
4177011,4197302,4199779
4175535,4197818,4201768
4171946,4199327,4206885
4169139,4200213,4210616
4168797,4200000,4210769
4177408,4197123,4199256
4175794,4197607,4201358
4171951,4199121,4206725
4169424,4199790,4209934
4170827,4197737,4206395
4177131,4197401,4199776
4175555,4197920,4201848
4171757,4199419,4207166
4168935,4200430,4211012
4176031,4197757,4201275
4177622,4196969,4198812
4175935,4197230,4200656
4172166,4198149,4205363
4169162,4199360,4209650
4176442,4196126,4199294
4178932,4192794,4193419
4177223,4193496,4195823
4172285,4197515,4204724
4168805,4200038,4210754
4176034,4197819,4201363
4177650,4197048,4198894
4175825,4197374,4200985
4171935,4198380,4205907
4168994,4199647,4210152
4175953,4197584,4201096
4177529,4196795,4198710
4175833,4197092,4200712
4172327,4197730,4204880
4171104,4196993,4205423
4175782,4197739,4201494
4177464,4196990,4199003
4175765,4197356,4200997
4171957,4198465,4205894
4168924,4199788,4210295
4176054,4197485,4200931
4177739,4196724,4198436
4176003,4197139,4200535
4172144,4198274,4205562
4173540,4197780,4203733
4178030,4193784,4195242
4179350,4193138,4193267
4176572,4195802,4198630
4172005,4198280,4205673
4172906,4199128,4205761
4176315,4197629,4200846
4177950,4196754,4198262
4176384,4196674,4199680
4172530,4197997,4204911
4173093,4199113,4205571
4176417,4197577,4200647
4177984,4196598,4197985
4176632,4196133,4198813
4174283,4195497,4200587
4172710,4199095,4205920
4176112,4197589,4200999
4177823,4196562,4198185
4176333,4196360,4199399
4172406,4197805,4204792
4172904,4198762,4205399
4176224,4197269,4200520
4177834,4196336,4197919
4176259,4196215,4199319
4172383,4197545,4204558
4174408,4194965,4200121
4177684,4193509,4195471
4178093,4195324,4196813
4175977,4196369,4199839
4169365,4200274,4210394
4172818,4198732,4205468
4176211,4197196,4200559
4177899,4195768,4197358
4176289,4195823,4198927
4169462,4200160,4210215
4172848,4198608,4205313
4176178,4197045,4200414
4178148,4195282,4196654
4178085,4193272,4194663
4169172,4200534,4210883
4172655,4198907,4205794
4176008,4197362,4200865
4177733,4195923,4197651
4175998,4195961,4199418
4169466,4200219,4210276
4172897,4198728,4205386
4176247,4197216,4200463
4177908,4195798,4197330
4176344,4195824,4198868
4171587,4196797,4204705
4174622,4195204,4200116
4176719,4196218,4199041
4177837,4196025,4197650
4167734,4201327,4213107
4169702,4200266,4210095
4173133,4198571,4205031
4176539,4196453,4199443
4178038,4195208,4196616
4167892,4201179,4212772
4169839,4200141,4209837
4173186,4198523,4204927
4176782,4196125,4198883
4179543,4192681,4192551
4167477,4201468,4213557
4169577,4200447,4210492
4172878,4198825,4205537
4176169,4196749,4200084
4177691,4195513,4197285
4167743,4201144,4212964
4169670,4200146,4210024
4173053,4198532,4205045
4176465,4196483,4199539
4177997,4195325,4196821
4170150,4197945,4207275
4171715,4197176,4204987
4173464,4197778,4203876
4176453,4196548,4199651
4178125,4195519,4196884
4168333,4201220,4212420
4170328,4200236,4209437
4173378,4198712,4204900
4176700,4196709,4199560
4168738,4200694,4211497
4168661,4200863,4211768
4170722,4199821,4208689
4174129,4197492,4202945
4178294,4193665,4194890
4168935,4201262,4211753
4168871,4201423,4211980
4170732,4200316,4209029
4173776,4198258,4203980
4176833,4196554,4199205
4169284,4200891,4211150
4169126,4200957,4211347
4170964,4199973,4208541
4173921,4198010,4203649
4176767,4196260,4199007
4171079,4197710,4206163
4170691,4197777,4206648
4170810,4198898,4207677
4173136,4197927,4204377
4176275,4196330,4199575
4169392,4200739,4210832
4169382,4200769,4210895
4171138,4199756,4208169
4173855,4197930,4203637
4176606,4196391,4199339
4169458,4200640,4210679
4169509,4200694,4210650
4171474,4199489,4207491
4175432,4195503,4199538
4171556,4199697,4207534
4169202,4200932,4211170
4169232,4200685,4210930
4171163,4199134,4207474
4173795,4197677,4203340
4171855,4199558,4207132
4169564,4200749,4210696
4169609,4200682,4210589
4171472,4199311,4207335
4174011,4197744,4203242
4173542,4196111,4201958
4171100,4197525,4205850
4169738,4199780,4209512
4170971,4199355,4207873
4173571,4197850,4203770
4171578,4199656,4207469
4169108,4200942,4211263
4169145,4200822,4211087
4171149,4199224,4207503
4173755,4197715,4203459
4171849,4199613,4207272
4169470,4200825,4210849
4169729,4200394,4210087
4173065,4196762,4203074
4176211,4193524,4196682
4171343,4199939,4207942
4168989,4201206,4211610
4169001,4200966,4211379
4170955,4199348,4207820
4175081,4197966,4202324
4171695,4199434,4207174
4169310,4200551,4210695
4169418,4199918,4209980
4171038,4198580,4207091
4176768,4194305,4196999
4173193,4196277,4202662
4169556,4200047,4210078
4169248,4200315,4210654
4171061,4198956,4207514
4175106,4198123,4202513
4171691,4199687,4207487
4169317,4200875,4211078
4169425,4200231,4210401
4171005,4198975,4207579
4175174,4198021,4202338
4171803,4199503,4207172
4169619,4200292,4210254
4171288,4197817,4206081
4174082,4194900,4200335
4175062,4198272,4202692
4171584,4199822,4207727
4169133,4200935,4211356
4169230,4200357,4210675
4176844,4197526,4200245
4175271,4198042,4202292
4171741,4199384,4207138
4169481,4200015,4210069
4169491,4199620,4209687
4178326,4193707,4194860
4176638,4194205,4197114
4172126,4198375,4205795
4169264,4200326,4210610
4169231,4200123,4210359
4176856,4197699,4200364
4175216,4198263,4202516
4171671,4199730,4207513
4169333,4200409,4210572
4169390,4199940,4210082
4176816,4197453,4200224
4175234,4197971,4202279
4172037,4199112,4206618
4171294,4197866,4206112
4172500,4195815,4202817
4176526,4197615,4200621
4174938,4198117,4202653
4171532,4199386,4207374
4169257,4199944,4210254
4169289,4199602,4209916
4176579,4197351,4200233
4175052,4197912,4202240
4171751,4199408,4207055
4169449,4200135,4210123
4177049,4194239,4196712
4178539,4193631,4194614
4175721,4196809,4200501
4171543,4199004,4206861
4169176,4200018,4210280
4175532,4198305,4202272
4176843,4197643,4200232
4175254,4197903,4202046
4171969,4198695,4206185
4169622,4199601,4209511
4175666,4198050,4201850
4177032,4197392,4199798
4175651,4197456,4201211
4173962,4196334,4201764
4172834,4195603,4202234
4175482,4198206,4202206
4176966,4197561,4200088
4175317,4197870,4202059
4171851,4198726,4206401
4169633,4199631,4209551
4175653,4197896,4201763
4176867,4197217,4199839
4175222,4197498,4201721
4171931,4198284,4205805
4169691,4199130,4208922
4176996,4194070,4196594
4176971,4196268,4198790
4174929,4197785,4202263
4171622,4198664,4206460
4172800,4198765,4205544
4175554,4197664,4201640
4176837,4196900,4199552
4175412,4196730,4200779
4172019,4197808,4205260
4173235,4198592,4204910
4175684,4197516,4201347
4177106,4196486,4198858
4177105,4194150,4196451
4174977,4193653,4198103
4172828,4198929,4205623
4175246,4197835,4202097
4176461,4197110,4200148
4175031,4196955,4201346
4171816,4197987,4205612
4173098,4198860,4205270
4175419,4197860,4201865
4176639,4197133,4199863
4175481,4196929,4200775
4172390,4197995,4205008
4174661,4195289,4200135
4175759,4196747,4200476
4176350,4197240,4200314
4175138,4197066,4201361
4172129,4198015,4205373
4173022,4198772,4205239
4175317,4197746,4201928
4176445,4196999,4199994
4175035,4196774,4201124
4171144,4199562,4207921
4173352,4198550,4204764
4175782,4197144,4200935
4178299,4193841,4195028
4177879,4192015,4193563
4170659,4199913,4208844
4172869,4198907,4205613
4175104,4197762,4202193
4176395,4196575,4199660
4175045,4196612,4201026
4170937,4199785,4208314
4173112,4198789,4205169
4175319,4197630,4201793
4176531,4196345,4199240
4175025,4196393,4200769
4172553,4196224,4203170
4173332,4197501,4203695
4175108,4197539,4201961
4176405,4196395,4199473
4175055,4196445,4200788
4170969,4199663,4208209
4173032,4198688,4205187
4175251,4197539,4201775
4176507,4196371,4199242
4169308,4200359,4210526
4171033,4199686,4208139
4173489,4198292,4204307
4177177,4194527,4196816
4179224,4191643,4191896
4169202,4200927,4211179
4170917,4200150,4208670
4173043,4198848,4205309
4175435,4197007,4201059
4176581,4196108,4198939
4169429,4200808,4210866
4171153,4200010,4208394
4173290,4198858,4205125
4175631,4197187,4201086
4176750,4196177,4198918
4171290,4197582,4205773
4171537,4199059,4207034
4173043,4198928,4205396
4175389,4197275,4201309
4176530,4196196,4199072
4169614,4200721,4210606
4171251,4199978,4208186
4173273,4198838,4205028
4175625,4197076,4200904
4176686,4196112,4198851
4170006,4200367,4209927
4171761,4199292,4207082
4174794,4196115,4200839
4177905,4192823,4194423
4169782,4200792,4210495
4170277,4200577,4209765
4171801,4199702,4207366
4173771,4198192,4203852
4175706,4196845,4200573
4170054,4200488,4209963
4170550,4200296,4209284
4171973,4199461,4206990
4173819,4197926,4203590
4175729,4196566,4200308
4171365,4197279,4205380
4170486,4199300,4208307
4171580,4199400,4207303
4173568,4197986,4203860
4175510,4196544,4200474
4169532,4200274,4210174
4170205,4200023,4209323
4171748,4199125,4206907
4173730,4197589,4203305
4175679,4196336,4200060
4169529,4200136,4210048
4170238,4199671,4208925
4172782,4196882,4203572
4175819,4193514,4197135
4176983,4193932,4196417
4169595,4200637,4210499
4169945,4200435,4209964
4171503,4199531,4207501
4173659,4197929,4203741
4171545,4199454,4207256
4169728,4200357,4210059
4170169,4199968,4209297
4171950,4198599,4206128
4173977,4197376,4202849
4172963,4196108,4202570
4169961,4199566,4209050
